8.06983155538034	65535
10.8523628815847	23524.080078125
13.6339268128075	7589.35986328125
16.4145241586341	5305.080078125
19.1941557270286	3402.67993164063
21.9728223243648	3177.63989257813
24.7505247554232	2926.36010742188
27.5272638233981	2775.1201171875
30.3030403298867	2672.8798828125
33.0778550749279	2590.32006835938
35.8517088569479	2443.36010742188
38.6246024728463	2385.0400390625
41.3965367178943	2320.15991210938
44.1675123858447	2237.0400390625
46.9375302688736	2220.76000976563
49.7065911575747	2159.43994140625
52.4746958410135	2127.52001953125
55.2418451066927	2094
58.0080397405708	2073.47998046875
60.7732805270517	2040.88000488281
63.5375682490068	2014.9599609375
66.3009036877731	2001.11999511719
69.0632876231389	1978.71997070313
71.824720833382	1975.68005371094
74.5852040952316	2018.56005859375
77.3447381839102	2168.60009765625
80.1033238731276	2466.63989257813
82.8609619350508	2783.8798828125
85.617653140358	2906.28002929688
88.3733982582084	2667.56005859375
91.1281980562523	2289.67993164063
93.8820533006568	2039.56005859375
96.634964756084	1937.71997070313
99.3869331856808	1910.76000976563
102.137959351128	1917.0400390625
104.888044012621	1980.56005859375
107.637187928843	2208.39990234375
110.385391857023	2667.32006835938
113.132656552911	3251.080078125
115.87898277078	3600
118.624371263418	3365.47998046875
121.368822782174	2825.919921875
124.112338076918	2274.28002929688
126.854917896064	1963.43994140625
129.596562986579	1857.40002441406
132.337274093958	1829.92004394531
135.077051962269	1787.43994140625
137.815897334111	1796.11999511719
140.553810950677	1831.59997558594
143.290793551678	1915.31994628906
146.026845875436	2085.0400390625
148.761968658799	2505.80004882813
151.496162637203	3111.43994140625
154.229428544681	3596.71997070313
156.96176711382	3414.43994140625
159.693179075793	2898.8798828125
162.423665160347	2453.15991210938
165.153226095856	2345.9599609375
167.881862609253	2381.84008789063
170.609575426077	2350.0400390625
173.336365270466	2265.43994140625
176.062232865157	2191.71997070313
178.787178931499	2117.28002929688
181.511204189453	1985.83996582031
184.234309357581	1906.16003417969
186.956495153072	1870.11999511719
189.67776229172	1868.23999023438
192.398111487968	1857.64001464844
195.117543454853	1855.92004394531
197.836058904063	1883.23999023438
200.553658545909	1941.76000976563
203.270343089341	2055.63989257813
205.986113241964	2299.19995117188
208.700969709988	2735.23999023438
211.414913198297	3269.56005859375
214.127944410428	3464.80004882813
216.840064048546	3217.80004882813
219.551272813492	2705.15991210938
222.26157140476	2334.47998046875
224.970960520503	2223.43994140625
227.679440857538	2229.1201171875
230.387013111368	2225.56005859375
233.093677976139	2148
235.799436144692	2106.080078125
238.504288308535	2159.76000976563
241.208235157882	2382.56005859375
243.911277381588	2848.84008789063
246.613415667244	3678.23999023438
249.314650701091	4677.64013671875
252.01498316809	5385.56005859375
254.714413751892	5481.52001953125
257.412943134845	5204.39990234375
260.110571998008	5197.52001953125
262.807301021136	5264.7998046875
265.503130882699	4746.240234375
268.198062259892	3853.60009765625
270.892095828612	2980.52001953125
273.585232263467	2475.71997070313
276.277472237817	2267.19995117188
278.968816423716	2197.919921875
281.659265491976	2226.15991210938
284.348820112117	2391.80004882813
287.037480952397	2764.52001953125
289.725248679829	3417
292.412123960149	4294.16015625
295.09810745785	5146.68017578125
297.783199836165	6012.1201171875
300.467401757065	6735.68017578125
303.150713881315	6688.60009765625
305.833136868386	5741.72021484375
308.514671376544	4437.27978515625
311.195318062804	3603.1201171875
313.875077582947	3434.919921875
316.553950591529	3683
319.231937741872	3837.32006835938
321.909039686061	3605.63989257813
324.585257074981	3010.28002929688
327.260590558297	2485.63989257813
329.935040784443	2158.80004882813
332.608608400629	2063.43994140625
335.281294052886	2038.19995117188
337.953098386021	2025.56005859375
340.624022043651	2048.19995117188
343.294065668148	2030.16003417969
345.963229900748	1992.31994628906
348.631515381437	1919
351.298922749048	1849.52001953125
353.965452641199	1817.28002929688
356.63110569433	1803.40002441406
359.295882543702	1778.19995117188
361.959783823395	1769.71997070313
364.622810166292	1768.64001464844
367.284962204131	1759.31994628906
369.946240567458	1738.64001464844
372.606645885655	1733.11999511719
375.266178786937	1725.56005859375
377.924839898355	1743.59997558594
380.582629845806	1753.28002929688
383.239549254017	1779.07995605469
385.895598746575	1821.28002929688
388.550778945909	1865.56005859375
391.205090473288	1951.92004394531
393.858533948859	2072.36010742188
396.511109991594	2298.23999023438
399.162819219365	2569.52001953125
401.813662248866	2855
404.463639695684	2930.56005859375
407.11275217425	2783.8798828125
409.761000297891	2470.080078125
412.408384678808	2188.39990234375
415.054905928044	2010.28002929688
417.70056465556	1918.56005859375
420.345361470175	1856.9599609375
422.989296979605	1827.35998535156
425.632371790465	1817.92004394531
428.274586508222	1799.76000976563
430.915941737269	1784.23999023438
433.556438080899	1780
436.196076141276	1746.07995605469
438.834856519486	1754.52001953125
441.472779815522	1750.07995605469
444.109846628261	1751.35998535156
446.746057555515	1739.83996582031
449.381413194	1728.07995605469
452.015914139337	1711.92004394531
454.649560986074	1720.68005371094
457.282354327696	1717.59997558594
459.914294756583	1723.28002929688
462.54538286405	1718.19995117188
465.175619240353	1713.64001464844
467.805004474664	1687.68005371094
470.4335391551	1668.76000976563
473.061223868709	1653.19995117188
475.688059201479	1660.28002929688
478.314045738346	1663.47998046875
480.939184063187	1649.35998535156
483.56347475882	1664.23999023438
486.186918407029	1652.28002929688
488.809515588536	1647.52001953125
491.43126688302	1658.80004882813
494.052172869133	1664.43994140625
496.672234124471	1671.59997558594
499.2914512256	1689.07995605469
501.909824748045	1728.40002441406
504.527355266328	1802.68005371094
507.1440433539	1909.07995605469
509.759889583206	2082.28002929688
512.374894525683	2227
514.989058751726	2308.39990234375
517.602382830721	2229.0400390625
520.214867331028	2059.28002929688
522.826512820009	1869.59997558594
525.437319864001	1761.19995117188
528.047289028353	1710
530.656420877386	1751.11999511719
533.26471597443	1824.83996582031
535.872174881806	1903.11999511719
538.478798160851	1910.28002929688
541.084586371913	1844.40002441406
543.689540074311	1719.9599609375
546.293659826411	1653.0400390625
548.896946185566	1611.31994628906
551.499399708168	1572.88000488281
554.101020949614	1556.83996582031
556.701810464301	1556.83996582031
559.301768805695	1558.19995117188
561.900896526248	1576.11999511719
564.499194177451	1571.88000488281
567.096662309833	1577.47998046875
569.693301472946	1590.56005859375
572.289112215369	1580
574.884095084746	1569.59997558594
577.478250627731	1573.52001953125
580.071579390036	1589.31994628906
582.664081916419	1623.11999511719
585.255758750672	1682.43994140625
587.846610435659	1713.47998046875
590.436637513277	1690.23999023438
593.025840524488	1668.35998535156
595.614220009289	1636.16003417969
598.201776506783	1612
600.788510555085	1601.71997070313
603.374422691401	1591.47998046875
605.959513452001	1572.07995605469
608.543783372216	1554.52001953125
611.127232986463	1530.56005859375
613.709862828216	1515.71997070313
616.291673430046	1500.80004882813
618.872665323567	1495.16003417969
621.452839039522	1504
624.032195107698	1489.23999023438
626.610734056987	1488.23999023438
629.188456415358	1483.28002929688
631.765362709888	1462.40002441406
634.341453466729	1450.80004882813
636.91672921115	1450.80004882813
639.491190467486	1431.59997558594
642.064837759193	1433
644.637671608829	1433.59997558594
647.209692538061	1415.43994140625
649.780901067641	1403.23999023438
652.351297717453	1400.28002929688
654.920883006485	1377.64001464844
657.489657452838	1375.92004394531
660.057621573719	1367.07995605469
662.624775885486	1360.19995117188
665.191120903578	1358.47998046875
667.756657142582	1348.52001953125
670.321385116205	1361
672.885305337281	1334.92004394531
675.448418317769	1341.76000976563
678.01072456877	1336.40002441406
680.572224600517	1338.76000976563
683.132918922368	1329.68005371094
685.692808042839	1332.88000488281
688.251892469561	1329.64001464844
690.810172709356	1325.28002929688
693.36764926813	1334.07995605469
695.924322650991	1333.23999023438
698.480193362163	1345.23999023438
701.035261905038	1342.59997558594
703.589528782157	1352.64001464844
706.142994495228	1344.19995117188
708.695659545098	1326.52001953125
711.247524431796	1316.64001464844
713.798589654508	1311.31994628906
716.348855711581	1319
718.898323100532	1310.68005371094
721.44699231806	1306.28002929688
723.994863860012	1291.19995117188
726.541938221433	1290.19995117188
729.088215896528	1272.80004882813
731.633697378698	1274.23999023438
734.1783831605	1271.76000976563
736.722273733721	1273.28002929688
739.265369589275	1267.23999023438
741.8076712173	1255.40002441406
744.349179107116	1250.31994628906
746.889893747228	1253.40002441406
749.429815625352	1250.23999023438
751.968945228383	1262.35998535156
754.507283042418	1248.28002929688
757.044829552757	1250.07995605469
759.581585243912	1254.59997558594
762.117550599581	1250.0400390625
764.652726102687	1235.92004394531
767.187112235341	1233.64001464844
769.720709478883	1232.40002441406
772.25351831387	1232.52001953125
774.785539220055	1220.19995117188
777.316772676419	1231.59997558594
779.847219161155	1239.92004394531
782.376879151701	1235.56005859375
784.905753124691	1243.43994140625
787.433841555999	1258.28002929688
789.961144920717	1272.80004882813
792.487663693166	1263.59997558594
795.013398346931	1277.9599609375
797.538349354784	1286.31994628906
800.062517188764	1288.23999023438
802.585902320139	1285.88000488281
805.108505219404	1277.35998535156
807.630326356325	1279.31994628906
810.151366199891	1273.71997070313
812.671625218338	1271.07995605469
815.191103879156	1264.43994140625
817.709802649094	1249.59997558594
820.227721994123	1243.80004882813
822.74486237951	1246.76000976563
825.261224269735	1241.07995605469
827.776808128563	1232.19995117188
830.29161441903	1228.40002441406
832.805643603406	1238.68005371094
835.318896143227	1232.83996582031
837.831372499322	1232.31994628906
840.343073131767	1227.07995605469
842.853998499914	1230.40002441406
845.364149062375	1237.83996582031
847.873525277061	1223.35998535156
850.382127601141	1226.71997070313
852.889956491055	1223.40002441406
855.397012402559	1218.80004882813
857.903295790638	1220.71997070313
860.408807109606	1212.83996582031
862.913546813048	1216.52001953125
865.417515353821	1209.83996582031
867.920713184102	1203.16003417969
870.423140755331	1201.31994628906
872.924798518251	1207.59997558594
875.425686922913	1206.0400390625
877.925806418653	1207.9599609375
880.42515745411	1206.88000488281
882.923740477211	1215.68005371094
885.421555935212	1218.07995605469
887.918604274663	1214.43994140625
890.4148859414	1229
892.910401380604	1226.23999023438
895.405151036729	1218
897.899135353585	1210.35998535156
900.39235477425	1227.19995117188
902.884809741165	1213.64001464844
905.376500696041	1222.68005371094
907.86742807995	1213.59997558594
910.357592333259	1209.92004394531
912.846993895677	1202.68005371094
915.335633206225	1213.9599609375
917.823510703252	1205.35998535156
920.310626824455	1198.59997558594
922.796982006842	1203.19995117188
925.282576686758	1193.76000976563
927.767411299889	1188.07995605469
930.251486281251	1176.28002929688
932.734802065205	1175.59997558594
935.217359085449	1183.16003417969
937.699157775021	1162.35998535156
940.1801985663	1159.76000976563
942.660481891026	1153.80004882813
945.140008180278	1158.43994140625
947.618777864472	1145.11999511719
950.096791373382	1137.07995605469
952.574049136158	1132.9599609375
955.050551581278	1128.92004394531
957.526299136569	1128.64001464844
960.001292229255	1124
962.475531285873	1112.31994628906
964.949016732371	1117.56005859375
967.421748994021	1111.11999511719
969.893728495469	1104.56005859375
972.364955660742	1102.71997070313
974.835430913227	1106.92004394531
977.305154675679	1107.40002441406
979.774127370236	1102.92004394531
982.242349418392	1107.64001464844
984.709821241033	1098.83996582031
987.17654325842	1104.07995605469
989.642515890182	1097.07995605469
992.107739555351	1099.80004882813
994.572214672318	1096.19995117188
997.035941658874	1100.88000488281
999.498920932188	1099.80004882813
1001.96115290882	1106.23999023438
1004.42263800473	1096.76000976563
1006.88337663524	1106.16003417969
1009.3433692151	1107.56005859375
1011.80261615844	1104.64001464844
1014.26111787878	1107.83996582031
1016.71887478905	1106.64001464844
1019.17588730156	1101.47998046875
1021.63215582805	1111.23999023438
1024.08768077964	1114.71997070313
1026.54246256687	1107.11999511719
1028.99650159967	1099.16003417969
1031.4497982874	1099.28002929688
1033.90235303881	1106.47998046875
1036.35416626207	1098.92004394531
1038.80523836477	1088.80004882813
1041.2555697539	1100.88000488281
1043.70516083588	1098.23999023438
1046.15401201654	1094.40002441406
1048.60212370113	1085.35998535156
1051.04949629433	1107.43994140625
1053.49613020022	1103.71997070313
1055.94202582234	1103.11999511719
1058.38718356364	1109.64001464844
1060.83160382647	1101.11999511719
1063.27528701266	1102.35998535156
1065.71823352344	1110
1068.16044375947	1109.16003417969
1070.60191812087	1110.71997070313
1073.04265700716	1100
1075.48266081734	1112.52001953125
1077.92192994981	1106.19995117188
1080.36046480243	1107.56005859375
1082.79826577248	1107.56005859375
1085.23533325675	1110.16003417969
1087.67166765139	1107.80004882813
1090.10726935204	1098.71997070313
1092.5421387538	1101.23999023438
1094.97627625119	1097.76000976563
1097.40968223822	1097.47998046875
1099.8423571083	1096.92004394531
1102.27430125434	1087.35998535156
1104.70551506869	1090.43994140625
1107.13599894315	1086.56005859375
1109.56575326901	1080.80004882813
1111.99477843699	1084.64001464844
1114.42307483727	1090.80004882813
1116.85064285951	1083.47998046875
1119.27748289286	1088
1121.70359532589	1087.9599609375
1124.12898054664	1084.11999511719
1126.55363894268	1080.11999511719
1128.97757090097	1077.92004394531
1131.40077680801	1081.16003417969
1133.82325704974	1086.23999023438
1136.2450120116	1077.56005859375
1138.66604207847	1076.9599609375
1141.08634763474	1074.64001464844
1143.50592906428	1071.28002929688
1145.92478675044	1073.0400390625
1148.34292107603	1066.40002441406
1150.76033242338	1077.40002441406
1153.1770211743	1072.16003417969
1155.59298771007	1066.16003417969
1158.00823241146	1069.11999511719
1160.42275565875	1073.76000976563
1162.83655783171	1073.19995117188
1165.2496393096	1077.0400390625
1167.66200047116	1076.80004882813
1170.07364169464	1078.31994628906
1172.48456335781	1083.40002441406
1174.8947658379	1072.43994140625
1177.30424951167	1078.92004394531
1179.71301475538	1065.40002441406
1182.12106194476	1071.0400390625
1184.5283914551	1070.9599609375
1186.93500366118	1071.83996582031
1189.34089893725	1067.40002441406
1191.74607765711	1058.16003417969
1194.15054019408	1060.07995605469
1196.55428692095	1058.40002441406
1198.95731821006	1062.31994628906
1201.35963443325	1058.71997070313
1203.76123596189	1054.68005371094
1206.16212316686	1047.47998046875
1208.56229641854	1048
1210.96175608688	1049.23999023438
1213.3605025413	1048.80004882813
1215.75853615078	1046.43994140625
1218.15585728382	1038.83996582031
1220.55246630843	1038.56005859375
1222.94836359216	1047.35998535156
1225.3435495021	1028.80004882813
1227.73802440484	1032.47998046875
1230.13178866654	1028.16003417969
1232.52484265287	1035.11999511719
1234.91718672904	1028.47998046875
1237.30882125981	1039.16003417969
1239.69974660944	1026.9599609375
1242.08996314178	1026.35998535156
1244.47947122019	1025.9599609375
1246.86827120757	1020.35998535156
1249.25636346638	1019.84002685547
1251.64374835861	1014.88000488281
1254.0304262458	1028.19995117188
1256.41639748904	1019.28002929688
1258.80166244897	1018.15997314453
1261.18622148579	1011.91998291016
1263.57007495922	1014.76000976563
1265.95322322856	1015.08001708984
1268.33566665265	1005.55999755859
1270.7174055899	1009.84002685547
1273.09844039826	1006.79998779297
1275.47877143526	1006.28002929688
1277.85839905795	1007.08001708984
1280.23732362299	1004.84002685547
1282.61554548656	1001.08001708984
1284.99306500443	1007.64001464844
1287.36988253192	999.52001953125
1289.74599842392	997
1292.1214130349	996.919982910156
1294.49612671887	992.320007324219
1296.87013982942	1000.47998046875
1299.24345271973	990.359985351563
1301.61606574255	990.719970703125
1303.98797925017	996.640014648438
1306.35919359448	988.919982910156
1308.72970912694	998.47998046875
1311.0995261986	997.440002441406
1313.46864516007	995.039978027344
1315.83706636156	993.440002441406
1318.20479015284	988.080017089844
1320.57181688326	998.159973144531
1322.93814690177	995.080017089844
1325.30378055692	990.080017089844
1327.6687181968	986.280029296875
1330.03296016912	990.119995117188
1332.39650682117	987.760009765625
1334.75935849983	988.799987792969
1337.12151555158	991.359985351563
1339.48297832247	993.760009765625
1341.84374715817	985.960021972656
1344.20382240391	992.760009765625
1346.56320440456	980.280029296875
1348.92189350455	987.599975585938
1351.27989004793	991.679992675781
1353.63719437833	984.52001953125
1355.99380683901	995.640014648438
1358.34972777279	983.200012207031
1360.70495752215	988.159973144531
1363.05949642911	986.359985351563
1365.41334483534	985.840026855469
1367.76650308209	981.359985351563
1370.11897151025	978.119995117188
1372.47075046029	979.960021972656
1374.8218402723	982.280029296875
1377.17224128598	981.159973144531
1379.52195384065	985.679992675781
1381.87097827523	975.599975585938
1384.21931492827	984.880004882813
1386.56696413791	973.719970703125
1388.91392624195	979.760009765625
1391.26020157776	979.919982910156
1393.60579048237	986.039978027344
1395.9506932924	977.080017089844
1398.29491034411	977.47998046875
1400.63844197339	982.359985351563
1402.98128851573	983.640014648438
1405.32345030626	971.159973144531
1407.66492767973	980.760009765625
1410.00572097052	971.960021972656
1412.34583051265	968.52001953125
1414.68525663975	971.440002441406
1417.02399968509	974.239990234375
1419.36205998159	977.200012207031
1421.69943786176	973.960021972656
1424.03613365777	968.280029296875
1426.37214770145	968.080017089844
1428.70748032422	970.239990234375
1431.04213185716	968.840026855469
1433.376102631	974.960021972656
1435.70939297608	962.559997558594
1438.0420032224	969.320007324219
1440.37393369962	970.679992675781
1442.705184737	970.559997558594
1445.03575666348	968.640014648438
1447.36564980763	967.320007324219
1449.69486449765	972.960021972656
1452.02340106144	954.719970703125
1454.35125982649	965.919982910156
1456.67844111997	967.52001953125
1459.00494526869	960.719970703125
1461.33077259913	967
1463.65592343739	964.880004882813
1465.98039810926	960
1468.30419694015	962.880004882813
1470.62732025515	961.840026855469
1472.94976837901	969.039978027344
1475.27154163612	965.840026855469
1477.59264035055	967.640014648438
1479.91306484598	967.799987792969
1482.23281544583	958.719970703125
1484.55189247313	953.960021972656
1486.87029625058	961.799987792969
1489.18802710054	956.239990234375
1491.50508534507	961.679992675781
1493.82147130583	954.679992675781
1496.13718530422	956.840026855469
1498.45222766128	960.119995117188
1500.76659869769	955.200012207031
1503.08029873384	958.080017089844
1505.39332808978	958.760009765625
1507.70568708522	959.559997558594
1510.01737603957	952.359985351563
1512.32839527187	959.960021972656
1514.63874510091	953.640014648438
1516.94842584506	958.559997558594
1519.25743782245	957.47998046875
1521.56578135084	953.320007324219
1523.87345674769	958.599975585938
1526.18046433013	953.47998046875
1528.486804415	956
1530.79247731879	955.719970703125
1533.09748335767	962.47998046875
1535.40182284752	948.52001953125
1537.70549610388	944.559997558594
1540.00850344202	947.080017089844
1542.31084517683	951.960021972656
1544.61252162296	959.239990234375
1546.9135330947	952.840026855469
1549.21387990604	952.320007324219
1551.51356237067	954.880004882813
1553.81258080197	950.559997558594
1556.11093551303	949.679992675781
1558.40862681658	950.799987792969
1560.70565502511	950.799987792969
1563.00202045076	944.719970703125
1565.29772340541	944.640014648438
1567.59276420058	951.47998046875
1569.88714314755	942.679992675781
1572.18086055725	947.640014648438
1574.47391674033	947.679992675781
1576.76631200717	941.400024414063
1579.0580466678	945.640014648438
1581.34912103199	948.840026855469
1583.6395354092	951.47998046875
1585.92929010861	944.880004882813
1588.21838543909	943.280029296875
1590.50682170921	948.359985351563
1592.79459922728	943.440002441406
1595.08171830129	944.679992675781
1597.36817923896	945.840026855469
1599.65398234769	948.52001953125
1601.93912793465	939.640014648438
1604.22361630665	944.599975585938
1606.50744777026	949.559997558594
1608.79062263176	939.880004882813
1611.07314119714	941.440002441406
1613.35500377209	938.640014648438
1615.63621066205	944.599975585938
1617.91676217216	938.719970703125
1620.19665860727	943.359985351563
1622.47590027197	940
1624.75448747054	943.599975585938
1627.03242050703	943.320007324219
1629.30969968516	943.039978027344
1631.58632530841	946.080017089844
1633.86229767997	942.559997558594
1636.13761710275	940.47998046875
1638.41228387941	938.320007324219
1640.6862983123	935.960021972656
1642.95966070354	935.52001953125
1645.23237135493	937.880004882813
1647.50443056804	940.200012207031
1649.77583864414	938.559997558594
1652.04659588428	945.840026855469
1654.31670258917	940.760009765625
1656.58615905931	936.719970703125
1658.85496559492	940.400024414063
1661.12312249595	934.280029296875
1663.39063006206	940.559997558594
1665.65748859269	934.159973144531
1667.923698387	936.039978027344
1670.18925974388	939.760009765625
1672.45417296196	934.359985351563
1674.71843833963	939.640014648438
1676.98205617498	934.239990234375
1679.24502676588	940.320007324219
1681.50735040992	933.599975585938
1683.76902740445	934.359985351563
1686.03005804653	937.799987792969
1688.29044263302	932.559997558594
1690.55018146047	934.159973144531
1692.8092748252	935.760009765625
1695.06772302328	934.47998046875
1697.32552635052	935.039978027344
1699.58268510249	940.280029296875
1701.83919957448	934.640014648438
1704.09507006158	932.080017089844
1706.35029685857	926.840026855469
1708.60488026003	940.880004882813
1710.85882056028	932.320007324219
1713.11211805336	933.960021972656
1715.36477303313	930.239990234375
1717.61678579314	932.799987792969
1719.86815662673	936.47998046875
1722.11888582699	933.200012207031
1724.36897368676	931.799987792969
1726.61842049864	930.47998046875
1728.86722655501	928.919982910156
1731.11539214797	932.719970703125
1733.36291756941	937.080017089844
1735.60980311097	927.679992675781
1737.85604906405	929.400024414063
1740.10165571982	929.559997558594
1742.34662336921	927.239990234375
1744.59095230291	936
1746.83464281138	930.200012207031
1749.07769518483	924.119995117188
1751.32010971326	925.119995117188
1753.56188668643	927.559997558594
1755.80302639385	930.239990234375
1758.04352912481	928.159973144531
1760.28339516838	935.52001953125
1762.5226248134	926.359985351563
1764.76121834845	922.320007324219
1766.99917606191	919.559997558594
1769.23649824192	926.719970703125
1771.4731851764	932.320007324219
1773.70923715304	923.919982910156
1775.9446544593	929.880004882813
1778.17943738243	921.119995117188
1780.41358620942	932.960021972656
1782.64710122708	928.559997558594
1784.87998272198	921.239990234375
1787.11223098046	928.200012207031
1789.34384628864	922.47998046875
1791.57482893242	925.159973144531
1793.80517919749	923
1796.03489736931	929.960021972656
1798.26398373312	924.52001953125
1800.49243857396	928.359985351563
1802.72026217662	921.080017089844
1804.94745482571	924.320007324219
1807.17401680559	920.119995117188
1809.39994840043	927.799987792969
1811.62524989417	923
1813.84992157055	927.280029296875
1816.07396371308	920.239990234375
1818.29737660506	926.400024414063
1820.5201605296	926.880004882813
1822.74231576958	924.359985351563
1824.96384260767	925.039978027344
1827.18474132633	922.239990234375
1829.40501220779	917.440002441406
1831.62465553414	918.52001953125
1833.84367158718	921.880004882813
1836.06206064856	919.080017089844
1838.27982299969	915.119995117188
1840.49695892179	920.719970703125
1842.71346869587	923.159973144531
1844.92935260275	918.320007324219
1847.144610923	919.359985351563
1849.35924393705	922.799987792969
1851.57325192508	917.599975585938
1853.78663516709	923.280029296875
1855.99939394287	922.280029296875
1858.21152853201	911.679992675781
1860.42303921391	915.47998046875
1862.63392626776	921.919982910156
1864.84418997254	918.159973144531
1867.05383060706	920.960021972656
1869.2628484499	916.119995117188
1871.47124377948	917.960021972656
1873.679016874	918.799987792969
1875.88616801146	920.159973144531
1878.09269746967	918.52001953125
1880.29860552625	915.159973144531
1882.50389245864	918.52001953125
1884.70855854405	919.440002441406
1886.91260405953	919.760009765625
1889.11602928192	916.840026855469
1891.31883448788	915.359985351563
1893.52101995387	919.47998046875
1895.72258595617	921.719970703125
1897.92353277085	915.280029296875
1900.12386067382	915.719970703125
1902.32356994078	918.440002441406
1904.52266084724	917.719970703125
1906.72113366853	917.880004882813
1908.91898867981	920.640014648438
1911.11622615604	917
1913.31284637197	911.119995117188
1915.5088496022	911.159973144531
1917.70423612113	919.239990234375
1919.89900620299	913.280029296875
1922.09316012181	919.280029296875
1924.28669815143	916.919982910156
1926.47962056554	919.52001953125
1928.67192763762	916.440002441406
1930.86361964098	921.47998046875
1933.05469684875	915.119995117188
1935.24515953387	916.119995117188
1937.43500796913	915.280029296875
1939.6242424271	922.119995117188
1941.81286318021	913.640014648438
1944.00087050068	911
1946.18826466057	913.679992675781
1948.37504593176	922.52001953125
1950.56121458597	911.960021972656
1952.74677089472	908.52001953125
1954.93171512937	909.919982910156
1957.11604756109	908.799987792969
1959.2997684609	918.679992675781
1961.48287809963	916.280029296875
1963.66537674794	917.52001953125
1965.84726467632	915.840026855469
1968.02854215508	910.119995117188
1970.20920945439	914
1972.3892668442	911.679992675781
1974.56871459433	913.47998046875
1976.74755297442	913.840026855469
1978.92578225393	911.880004882813
1981.10340270217	918.799987792969
1983.28041458826	911.039978027344
1985.45681818117	909.599975585938
1987.6326137497	915.359985351563
1989.80780156247	908.880004882813
1991.98238188797	908.47998046875
1994.15635499447	912.400024414063
1996.32972115012	911.679992675781
1998.5024806229	914.919982910156
2000.6746336806	916.159973144531
2002.84618059087	911.280029296875
2005.01712162121	908.679992675781
2007.1874570389	916.039978027344
2009.35718711113	912.47998046875
2011.52631210489	906.239990234375
2013.69483228701	916.47998046875
2015.86274792417	910.52001953125
2018.03005928287	904.47998046875
2020.19676662949	911
2022.36287023021	913.52001953125
2024.52837035107	916.52001953125
2026.69326725796	912.760009765625
2028.8575612166	911.440002441406
2031.02125249255	912.440002441406
2033.18434135123	916.400024414063
2035.34682805788	909.840026855469
2037.50871287762	911.119995117188
2039.66999607537	911.599975585938
2041.83067791594	910.960021972656
2043.99075866397	906.679992675781
2046.15023858391	909.119995117188
2048.30911794011	904.599975585938
2050.46739699675	913.52001953125
2052.62507601785	913.840026855469
2054.78215526727	907.080017089844
2056.93863500875	910.400024414063
2059.09451550585	911.679992675781
2061.24979702199	911.039978027344
2063.40447982045	912.599975585938
2065.55856416433	907.719970703125
2067.71205031661	910
2069.86493854012	912.239990234375
2072.01722909754	913.080017089844
2074.16892225137	914.039978027344
2076.32001826402	911.159973144531
2078.4705173977	918.880004882813
2080.62041991452	905.119995117188
2082.7697260764	909.080017089844
2084.91843614514	910.559997558594
2087.06655038239	905.760009765625
2089.21406904967	913.039978027344
2091.36099240832	909.280029296875
2093.50732071957	910.47998046875
2095.65305424449	912.919982910156
2097.79819324402	911.799987792969
2099.94273797893	909.840026855469
2102.08668870989	911.52001953125
2104.23004569739	907
2106.3728092018	911.320007324219
2108.51497948334	909.679992675781
2110.65655680209	903.880004882813
2112.79754141799	911.679992675781
2114.93793359086	907.47998046875
2117.07773358035	912.760009765625
2119.21694164599	909.52001953125
2121.35555804716	912.760009765625
2123.49358304311	913.840026855469
2125.63101689297	904.52001953125
2127.76785985569	905.880004882813
2129.90411219011	908.52001953125
2132.03977415494	916.200012207031
2134.17484600874	911.080017089844
2136.30932800994	900.880004882813
2138.44322041684	911.52001953125
2140.57652348758	908.679992675781
2142.70923748021	912.919982910156
2144.8413626526	909.960021972656
2146.97289926252	909.280029296875
2149.10384756759	909
2151.2342078253	909.719970703125
2153.363980293	910.960021972656
2155.49316522793	906.080017089844
2157.62176288718	914.320007324219
2159.74977352771	910.640014648438
2161.87719740635	908.400024414063
2164.00403477981	904.960021972656
2166.13028590465	909.47998046875
2168.25595103732	914.679992675781
2170.38103043412	908.359985351563
2172.50552435124	906.960021972656
2174.62943304474	905.239990234375
2176.75275677053	913.640014648438
2178.87549578442	906.280029296875
2180.99765034207	905.159973144531
2183.11922069903	906.159973144531
2185.2402071107	908.239990234375
2187.36060983238	902.960021972656
2189.48042911923	908.440002441406
2191.59966522628	911.039978027344
2193.71831840844	910.400024414063
2195.8363889205	907.080017089844
2197.95387701712	907.799987792969
2200.07078295282	907
2202.18710698203	902.880004882813
2204.30284935903	907
2206.41801033798	909.159973144531
2208.53259017291	910.559997558594
2210.64658911775	907.039978027344
2212.7600074263	903.679992675781
2214.87284535221	898.52001953125
2216.98510314904	906.719970703125
2219.09678107022	906.840026855469
2221.20787936906	910.320007324219
2223.31839829874	906.960021972656
2225.42833811233	906.599975585938
2227.53769906276	909.760009765625
2229.64648140287	906.760009765625
2231.75468538537	900.880004882813
2233.86231126282	910.280029296875
2235.96935928771	911.320007324219
2238.07582971237	902.799987792969
2240.18172278904	908.919982910156
2242.28703876983	907.080017089844
2244.39177790674	904
2246.49594045162	910.52001953125
2248.59952665625	903.47998046875
2250.70253677226	910
2252.8049710512	904.080017089844
2254.90682974444	908.599975585938
2257.0081131033	906.239990234375
2259.10882137894	899.919982910156
2261.20895482243	904.320007324219
2263.30851368471	914.679992675781
2265.40749821662	908
2267.50590866887	902.039978027344
2269.60374529206	905.559997558594
2271.70100833668	908.840026855469
2273.7976980531	911.559997558594
2275.89381469159	907.880004882813
2277.98935850229	910.200012207031
2280.08432973524	899.880004882813
2282.17872864035	903.880004882813
2284.27255546745	909.679992675781
2286.36581046622	905.799987792969
2288.45849388626	906.159973144531
2290.55060597703	905.47998046875
2292.6421469879	905.599975585938
2294.73311716813	902.880004882813
2296.82351676684	909.559997558594
2298.91334603309	899.840026855469
2301.00260521578	902.119995117188
2303.09129456372	907.599975585938
2305.17941432563	904.039978027344
2307.26696475008	901.320007324219
2309.35394608557	906.039978027344
2311.44035858046	910.52001953125
2313.52620248302	903.159973144531
2315.61147804142	908.159973144531
2317.69618550369	903.080017089844
2319.78032511779	903.640014648438
2321.86389713153	896.440002441406
2323.94690179265	903.440002441406
2326.02933934877	899.719970703125
2328.11121004741	902.440002441406
2330.19251413595	907.200012207031
2332.27325186172	910.47998046875
2334.35342347188	907.640014648438
2336.43302921355	907.719970703125
2338.51206933369	908.119995117188
2340.59054407919	906.679992675781
2342.6684536968	903.47998046875
2344.74579843321	906.960021972656
2346.82257853497	907.039978027344
2348.89879424854	907.080017089844
2350.97444582026	909.599975585938
2353.0495334964	905.919982910156
2355.12405752309	912.159973144531
2357.19801814637	899.960021972656
2359.27141561218	906.559997558594
2361.34425016636	897.47998046875
2363.41652205464	909.799987792969
2365.48823152265	904.440002441406
2367.55937881591	906.52001953125
2369.62996417985	908.719970703125
2371.69998785979	904.919982910156
2373.76945010095	906.47998046875
2375.83835114845	904.159973144531
2377.90669124731	905.960021972656
2379.97447064244	902.760009765625
2382.04168957866	903.599975585938
2384.10834830069	899.280029296875
2386.17444705313	911.47998046875
2388.2399860805	908.039978027344
2390.30496562721	911.119995117188
2392.36938593758	910.799987792969
2394.43324725583	910.599975585938
2396.49654982606	905.440002441406
2398.55929389228	901.599975585938
2400.62147969843	910.400024414063
2402.6831074883	897.599975585938
2404.74417750563	901.760009765625
2406.80468999402	902.880004882813
2408.864645197	906.200012207031
2410.92404335799	908.799987792969
2412.98288472031	905.919982910156
2415.04116952721	906.719970703125
2417.09889802179	909.080017089844
2419.15607044709	901.52001953125
2421.21268704604	903.640014648438
2423.2687480615	898.559997558594
2425.32425373618	904.679992675781
2427.37920431274	903.599975585938
2429.43360003373	904.200012207031
2431.48744114158	910.440002441406
2433.54072787867	898.159973144531
2435.59346048723	899.640014648438
2437.64563920945	909.080017089844
2439.69726428737	904.640014648438
2441.74833596299	900.039978027344
2443.79885447815	901.679992675781
2445.84882007466	906.840026855469
2447.8982329942	907.400024414063
2449.94709347834	909
2451.99540176859	906.640014648438
2454.04315810636	906.119995117188
2456.09036273293	904
2458.13701588954	905.919982910156
2460.18311781729	904.320007324219
2462.2286687572	905.840026855469
2464.27366895022	910.599975585938
2466.31811863717	906.719970703125
2468.3620180588	905.400024414063
2470.40536745576	902.159973144531
2472.4481670686	906.559997558594
2474.49041713778	904.440002441406
2476.53211790368	912.599975585938
2478.57326960658	907.719970703125
2480.61387248665	909.080017089844
2482.653926784	905.280029296875
2484.69343273862	908.559997558594
2486.7323905904	909.039978027344
2488.77080057919	904.799987792969
2490.80866294469	911.640014648438
2492.84597792655	901
2494.88274576429	905.52001953125
2496.91896669736	909.52001953125
2498.95464096513	908.559997558594
2500.98976880687	902.159973144531
2503.02435046173	907.799987792969
2505.05838616882	902.840026855469
2507.09187616712	909.919982910156
2509.12482069552	905.440002441406
2511.15721999285	907.679992675781
2513.18907429783	900.359985351563
2515.22038384908	918.919982910156
2517.25114888514	907.359985351563
2519.28136964447	904.239990234375
2521.31104636542	907.880004882813
2523.34017928627	900.880004882813
2525.36876864519	900.239990234375
2527.39681468027	904.919982910156
2529.42431762951	907.47998046875
2531.45127773083	900.960021972656
2533.47769522204	902.359985351563
2535.50357034088	905.599975585938
2537.528903325	913.440002441406
2539.55369441193	906.159973144531
2541.57794383915	903.719970703125
2543.60165184405	902.400024414063
2545.62481866389	904.200012207031
2547.64744453588	894
2549.66952969714	897.159973144531
2551.69107438467	902.840026855469
2553.71207883542	903.239990234375
2555.73254328624	904.400024414063
2557.75246797387	902.320007324219
2559.77185313499	903.960021972656
2561.79069900617	902.039978027344
2563.8090058239	909.52001953125
2565.82677382461	907
2567.84400324459	903.400024414063
2569.86069432008	908.719970703125
2571.87684728722	912.200012207031
2573.89246238206	904.840026855469
2575.90753984059	905.559997558594
2577.92207989865	910
2579.93608279207	900.599975585938
2581.94954875652	901.400024414063
2583.96247802765	910.239990234375
2585.97487084098	903.599975585938
2587.98672743194	909
2589.99804803591	905.400024414063
2592.00883288814	908.440002441406
2594.01908222382	909.760009765625
2596.02879627805	912.400024414063
2598.03797528584	902.47998046875
2600.04661948211	908.359985351563
2602.05472910171	915.960021972656
2604.06230437937	907.080017089844
2606.06934554978	906.760009765625
2608.07585284749	906.960021972656
2610.08182650701	900.52001953125
2612.08726676274	908.960021972656
2614.09217384901	914.359985351563
2616.09654800005	905.039978027344
2618.10038945	906.640014648438
2620.10369843292	909.47998046875
2622.1064751828	900.440002441406
2624.10871993352	913.039978027344
2626.11043291889	909.119995117188
2628.11161437263	907.47998046875
2630.11226452836	902.640014648438
2632.11238361965	903.640014648438
2634.11197187995	901.47998046875
2636.11102954264	906.960021972656
2638.10955684101	908.52001953125
2640.10755400826	907.799987792969
2642.10502127751	913.599975585938
2644.10195888181	904.799987792969
2646.0983670541	911.679992675781
2648.09424602725	907.799987792969
2650.08959603404	906.159973144531
2652.08441730715	915.799987792969
2654.07871007921	904.400024414063
2656.07247458272	908
2658.06571105014	910.719970703125
2660.05841971383	905.719970703125
2662.05060080604	911.880004882813
2664.04225455896	911.799987792969
2666.03338120469	906.799987792969
2668.02398097525	915.919982910156
2670.01405410256	911.359985351563
2672.00360081847	910.679992675781
2673.99262135475	913.039978027344
2675.98111594307	908.960021972656
2677.969084815	913.359985351563
2679.95652820207	909.039978027344
2681.94344633569	910.239990234375
2683.92983944721	909.719970703125
2685.91570776785	903.679992675781
2687.90105152882	907.679992675781
2689.88587096117	914.799987792969
2691.87016629591	907.359985351563
2693.85393776395	905.280029296875
2695.83718559613	911.840026855469
2697.81991002318	905.359985351563
2699.80211127576	912.280029296875
2701.78378958445	912.840026855469
2703.76494517974	909.359985351563
2705.74557829204	910.200012207031
2707.72568915166	908.200012207031
2709.70527798885	910.840026855469
2711.68434503375	908.47998046875
2713.66289051643	908.880004882813
2715.64091466688	906.840026855469
2717.61841771499	910.760009765625
2719.59539989058	907.280029296875
2721.57186142338	910.919982910156
2723.54780254304	908.960021972656
2725.52322347911	913.719970703125
2727.49812446106	909.719970703125
2729.4725057183	913.239990234375
2731.44636748013	905.400024414063
2733.41970997577	908
2735.39253343436	912.039978027344
2737.36483808495	908.880004882813
2739.33662415651	909
2741.30789187792	906.320007324219
2743.27864147799	907.47998046875
2745.24887318543	910.119995117188
2747.21858722887	912.400024414063
2749.18778383685	912.359985351563
2751.15646323785	906.599975585938
2753.12462566021	903.359985351563
2755.09227133226	915.880004882813
2757.05940048219	909.52001953125
2759.02601333812	910.799987792969
2760.99211012809	912.400024414063
2762.95769108006	901.919982910156
2764.92275642189	910.52001953125
2766.88730638136	908.599975585938
2768.85134118618	901.159973144531
2770.81486106395	913.840026855469
2772.7778662422	913.280029296875
2774.74035694839	912.919982910156
2776.70233340987	906.159973144531
2778.6637958539	907.799987792969
2780.62474450768	907.039978027344
2782.58517959831	915.239990234375
2784.54510135282	912.599975585938
2786.50450999813	908.200012207031
2788.46340576109	908.119995117188
2790.42178886846	905.880004882813
2792.37965954693	912.559997558594
2794.33701802309	911.200012207031
2796.29386452343	900.47998046875
2798.25019927439	902.880004882813
2800.20602250231	900.400024414063
2802.16133443342	910.080017089844
2804.11613529389	915.039978027344
2806.07042530982	910.200012207031
2808.02420470718	910.799987792969
2809.9774737119	907.559997558594
2811.93023254979	910.880004882813
2813.88248144658	905.280029296875
2815.83422062794	910.239990234375
2817.78545031943	908.47998046875
2819.73617074652	908.599975585938
2821.68638213461	910.400024414063
2823.63608470901	908.159973144531
2825.58527869495	911.159973144531
2827.53396431754	915.599975585938
2829.48214180186	905.47998046875
2831.42981137285	910.239990234375
2833.3769732554	906.440002441406
2835.3236276743	912.440002441406
2837.26977485424	917.47998046875
2839.21541501986	915.400024414063
2841.16054839568	910.640014648438
2843.10517520614	915.919982910156
2845.04929567562	910.760009765625
2846.99291002837	908.080017089844
2848.93601848857	912.719970703125
2850.87862128034	902.799987792969
2852.82071862768	913.239990234375
2854.76231075451	912.280029296875
2856.70339788467	910.47998046875
2858.64398024191	914.960021972656
2860.5840580499	910.919982910156
2862.52363153221	909.719970703125
2864.46270091233	907.359985351563
2866.40126641365	914.880004882813
2868.33932825949	908.760009765625
2870.27688667309	916.239990234375
2872.21394187757	909.640014648438
2874.15049409599	915.320007324219
2876.0865435513	908.559997558594
2878.02209046639	910
2879.95713506404	915.080017089844
2881.89167756695	912.599975585938
2883.82571819772	913.200012207031
2885.75925717889	907.200012207031
2887.69229473289	912.119995117188
2889.62483108206	909.719970703125
2891.55686644866	911.679992675781
2893.48840105485	912.640014648438
2895.41943512273	920.280029296875
2897.34996887426	917.039978027344
2899.28000253138	917.359985351563
2901.20953631588	911.200012207031
2903.13857044948	917.119995117188
2905.06710515384	916.080017089844
2906.99514065049	919.440002441406
2908.92267716088	913.840026855469
2910.84971490639	915.880004882813
2912.77625410829	915.400024414063
2914.70229498778	921.119995117188
2916.62783776595	913.080017089844
2918.55288266381	915
2920.47742990228	915.440002441406
2922.40147970219	916.719970703125
2924.32503228427	918.400024414063
2926.24808786918	913.280029296875
2928.17064667748	912.119995117188
2930.09270892964	921.760009765625
2932.01427484602	913.47998046875
2933.93534464692	915.159973144531
2935.85591855253	918
2937.77599678298	909.919982910156
2939.69557955825	919.760009765625
2941.61466709828	921.039978027344
2943.5332596229	921.039978027344
2945.45135735185	919.799987792969
2947.36896050479	922.119995117188
2949.28606930127	915.159973144531
2951.20268396075	916.919982910156
2953.11880470261	910.559997558594
2955.03443174614	920.719970703125
2956.94956531053	912.719970703125
2958.86420561487	918.200012207031
2960.77835287817	914.440002441406
2962.69200731935	919.159973144531
2964.60516915722	919.440002441406
2966.51783861053	912.719970703125
2968.4300158979	917.359985351563
2970.34170123787	914.119995117188
2972.2528948489	916.799987792969
2974.16359694936	919
2976.07380775749	909.919982910156
2977.98352749148	921.440002441406
2979.8927563694	924.239990234375
2981.80149460923	916.880004882813
2983.70974242887	919.799987792969
2985.61750004611	912.320007324219
2987.52476767866	918.359985351563
2989.43154554413	923.280029296875
2991.33783386002	915.960021972656
2993.24363284377	917.799987792969
2995.14894271269	916.840026855469
2997.05376368402	917.159973144531
2998.95809597489	917.919982910156
3000.86193980235	920.239990234375
3002.76529538334	920.159973144531
3004.6681629347	919.200012207031
3006.57054267321	919.799987792969
3008.47243481552	915.440002441406
3010.37383957819	918.52001953125
3012.2747571777	922.919982910156
3014.1751878304	918.880004882813
3016.0751317526	921.559997558594
3017.97458916046	919.080017089844
3019.87356027006	921.640014648438
3021.77204529741	924.080017089844
3023.67004445838	912.400024414063
3025.56755796878	917.52001953125
3027.46458604429	915.719970703125
3029.36112890054	913.200012207031
3031.257186753	911.960021972656
3033.1527598171	919.719970703125
3035.04784830814	918.47998046875
3036.94245244134	922.640014648438
3038.83657243179	915.719970703125
3040.73020849453	920.280029296875
3042.62336084447	923.200012207031
3044.51602969643	915.47998046875
3046.40821526512	918.47998046875
3048.29991776518	926.200012207031
3050.19113741111	917.599975585938
3052.08187441735	924.039978027344
3053.97212899823	922
3055.86190136796	921.799987792969
3057.75119174068	919.840026855469
3059.6400003304	917.840026855469
3061.52832735108	923.52001953125
3063.41617301651	920.47998046875
3065.30353754043	930.200012207031
3067.19042113648	924.159973144531
3069.07682401818	928.919982910156
3070.96274639895	918.559997558594
3072.84818849212	917.359985351563
3074.73315051091	924.880004882813
3076.61763266844	921.080017089844
3078.50163517775	926.599975585938
3080.38515825174	918.960021972656
3082.26820210325	917.599975585938
3084.15076694498	919.52001953125
3086.03285298956	923.760009765625
3087.91446044948	917.799987792969
3089.79558953718	920.239990234375
3091.67624046495	922.960021972656
3093.55641344501	926.400024414063
3095.43610868945	926.080017089844
3097.31532641028	919.760009765625
3099.19406681939	924.359985351563
3101.07233012858	925.52001953125
3102.95011654955	921.320007324219
3104.82742629385	926.679992675781
3106.70425957301	920.039978027344
3108.58061659837	927.679992675781
3110.45649758123	921.400024414063
3112.33190273275	926.440002441406
3114.206832264	923.640014648438
3116.08128638593	922.320007324219
3117.95526530941	927.640014648438
3119.82876924519	922.200012207031
3121.7017984039	915.159973144531
3123.5743529961	924.919982910156
3125.44643323221	923.359985351563
3127.31803932256	916.760009765625
3129.18917147738	928
3131.05982990678	925.359985351563
3132.93001482076	922.719970703125
3134.79972642924	924.200012207031
3136.66896494201	921
3138.53773056876	928.039978027344
3140.40602351906	923.719970703125
3142.27384400239	920.280029296875
3144.14119222812	928.400024414063
3146.00806840551	926.599975585938
3147.87447274371	926.719970703125
3149.74040545175	923.320007324219
3151.60586673859	930.52001953125
3153.47085681302	922.960021972656
3155.33537588378	928.840026855469
3157.19942415948	928.960021972656
3159.0630018486	925.400024414063
3160.92610915954	926.47998046875
3162.78874630058	926.640014648438
3164.65091347989	924.359985351563
3166.51261090551	921.640014648438
3168.37383878541	924.679992675781
3170.23459732743	928.960021972656
3172.09488673928	930.919982910156
3173.95470722859	930.719970703125
3175.81405900285	921.47998046875
3177.67294226948	929.400024414063
3179.53135723574	930.47998046875
3181.38930410881	922.880004882813
3183.24678309574	933.719970703125
3185.10379440349	914.320007324219
3186.96033823889	930.200012207031
3188.81641480866	924.919982910156
3190.6720243194	919
3192.52716697762	924.440002441406
3194.3818429897	926.719970703125
3196.23605256191	929.52001953125
3198.0897959004	922.760009765625
3199.94307321121	927.47998046875
3201.79588470028	932.280029296875
3203.64823057341	923.320007324219
3205.50011103631	924.52001953125
3207.35152629455	928.080017089844
3209.20247655361	929.159973144531
3211.05296201884	925.280029296875
3212.90298289549	928.080017089844
3214.75253938867	925.400024414063
3216.60163170338	935.719970703125
3218.45026004453	928.719970703125
3220.29842461688	937.320007324219
3222.14612562509	928.440002441406
3223.99336327371	930.320007324219
3225.84013776716	925.400024414063
3227.68644930975	924.880004882813
3229.53229810565	931.599975585938
3231.37768435896	928.840026855469
3233.22260827362	932.760009765625
3235.06707005346	931.719970703125
3236.91106990221	924.760009765625
3238.75460802346	923.919982910156
3240.59768462069	923.960021972656
3242.44029989727	930.400024414063
3244.28245405643	920.599975585938
3246.1241473013	928.47998046875
3247.96537983488	934.719970703125
3249.80615186006	933.760009765625
3251.64646357959	930.719970703125
3253.4863151961	926.760009765625
3255.32570691215	927.960021972656
3257.1646389301	930.799987792969
3259.00311145225	926.640014648438
3260.84112468076	929.440002441406
3262.67867881765	922.719970703125
3264.51577406484	931.119995117188
3266.35241062413	932.919982910156
3268.18858869718	930.320007324219
3270.02430848554	933
3271.85957019063	933.52001953125
3273.69437401375	930.47998046875
3275.52872015607	931.159973144531
3277.36260881867	926.799987792969
3279.19604020246	928.400024414063
3281.02901450824	934.280029296875
3282.8615319367	926.47998046875
3284.6935926884	927.52001953125
3286.52519696377	925.799987792969
3288.35634496311	930.400024414063
3290.1870368866	932.200012207031
3292.0172729343	929.599975585938
3293.84705330615	931.760009765625
3295.67637820193	930.760009765625
3297.50524782133	928.039978027344
3299.33366236391	934.200012207031
3301.16162202907	931.159973144531
3302.98912701613	932.239990234375
3304.81617752425	927.719970703125
3306.64277375247	934.559997558594
3308.4689158997	928.840026855469
3310.29460416474	925.679992675781
3312.11983874623	934.880004882813
3313.9446198427	929.200012207031
3315.76894765256	930.280029296875
3317.59282237407	931.159973144531
3319.41624420538	933.359985351563
3321.2392133445	935.080017089844
3323.06172998931	926.280029296875
3324.88379433755	938.559997558594
3326.70540658685	933.400024414063
3328.5265669347	930.640014648438
3330.34727557845	932.679992675781
3332.16753271535	939.119995117188
3333.98733854247	934.440002441406
3335.80669325678	931.280029296875
3337.62559705512	935.119995117188
3339.4440501342	933.960021972656
3341.26205269055	937.52001953125
3343.07960492064	942.119995117188
3344.89670702075	929.679992675781
3346.71335918706	935.440002441406
3348.52956161559	932.200012207031
3350.34531450225	932.880004882813
3352.16061804281	932.159973144531
3353.9754724329	938.640014648438
3355.789877868	934.119995117188
3357.60383454349	941.679992675781
3359.41734265458	940.760009765625
3361.23040239638	940.719970703125
3363.04301396382	932.799987792969
3364.85517755174	931.359985351563
3366.66689335481	933.239990234375
3368.47816156759	928.719970703125
3370.28898238446	937.359985351563
3372.09935599972	936.400024414063
3373.90928260748	937.599975585938
3375.71876240176	937.679992675781
3377.5277955764	927.52001953125
3379.33638232513	933.200012207031
3381.14452284152	938
3382.95221731902	940.640014648438
3384.75946595092	928.039978027344
3386.5662689304	936.760009765625
3388.37262645047	933.760009765625
3390.17853870402	936.960021972656
3391.98400588379	931.200012207031
3393.78902818239	931.400024414063
3395.59360579228	938.919982910156
3397.39773890576	932.559997558594
3399.20142771503	937.359985351563
3401.00467241213	942.440002441406
3402.80747318894	944.039978027344
3404.60983023722	938.080017089844
3406.41174374857	940.559997558594
3408.21321391447	933.47998046875
3410.01424092624	929.359985351563
3411.81482497507	934.880004882813
3413.61496625197	935.080017089844
3415.41466494786	944.200012207031
3417.21392125347	931.719970703125
3419.01273535942	934.840026855469
3420.81110745615	929.719970703125
3422.60903773398	936.760009765625
3424.40652638309	934.840026855469
3426.20357359349	936.799987792969
3428.00017955505	939.320007324219
3429.79634445752	933.679992675781
3431.59206849046	935.640014648438
3433.38735184333	946.719970703125
3435.18219470539	928.760009765625
3436.9765972658	945.119995117188
3438.77055971355	938.840026855469
3440.56408223748	933.52001953125
3442.35716502629	943.960021972656
3444.14980826854	936.960021972656
3445.9420121526	938.719970703125
3447.73377686673	942.799987792969
3449.52510259905	938.52001953125
3451.31598953748	942.359985351563
3453.10643786984	944.760009765625
3454.89644778376	944.320007324219
3456.68601946676	933.239990234375
3458.47515310616	939.200012207031
3460.26384888918	938.52001953125
3462.05210700284	938.679992675781
3463.83992763405	936.159973144531
3465.62731096955	935.760009765625
3467.4142571959	942.760009765625
3469.20076649956	938.400024414063
3470.98683906679	941.47998046875
3472.77247508372	939.239990234375
3474.55767473633	936.719970703125
3476.34243821044	939.799987792969
3478.1267656917	946.400024414063
3479.91065736562	939.599975585938
3481.69411341757	944.280029296875
3483.47713403272	937.080017089844
3485.25971939613	941.599975585938
3487.04186969267	938.400024414063
3488.82358510709	941.080017089844
3490.60486582394	938.640014648438
3492.38571202765	936.679992675781
3494.16612390248	934.200012207031
3495.94610163251	944.080017089844
3497.7256454017	940.320007324219
3499.50475539383	937.679992675781
3501.28343179252	951
3503.06167478123	939.919982910156
3504.83948454329	936.119995117188
3506.61686126183	941.280029296875
3508.39380511983	947.47998046875
3510.17031630013	943.159973144531
3511.94639498539	938.119995117188
3513.72204135812	934.760009765625
3515.49725560065	943.960021972656
3517.27203789519	945.080017089844
3519.04638842373	944.440002441406
3520.82030736815	943.119995117188
3522.59379491013	936.840026855469
3524.36685123122	944.880004882813
3526.13947651279	938.400024414063
3527.91167093603	943.919982910156
3529.68343468199	948.47998046875
3531.45476793156	947
3533.22567086543	938.679992675781
3534.99614366418	942.200012207031
3536.76618650817	944.039978027344
3538.53579957763	943.440002441406
3540.30498305261	946.760009765625
3542.07373711301	935.880004882813
3543.84206193852	942.159973144531
3545.60995770873	941.960021972656
3547.377424603	940.039978027344
3549.14446280057	942.47998046875
3550.91107248048	949.400024414063
3552.67725382162	943.200012207031
3554.4430070027	939.159973144531
3556.20833220227	943.200012207031
3557.97322959871	941.52001953125
3559.73769937022	946.200012207031
3561.50174169485	945.640014648438
3563.26535675047	948.47998046875
3565.02854471476	951.119995117188
3566.79130576526	940.280029296875
3568.55364007934	939.960021972656
3570.31554783417	940.159973144531
3572.07702920676	943.039978027344
3573.83808437396	942.200012207031
3575.59871351243	938.559997558594
3577.35891679868	945.119995117188
3579.11869440903	944.080017089844
3580.87804651963	940.320007324219
3582.63697330644	941.559997558594
3584.39547494529	946.719970703125
3586.15355161179	946.799987792969
3587.9112034814	943.799987792969
3589.66843072939	942.960021972656
3591.42523353087	935.200012207031
3593.18161206076	942.280029296875
3594.93756649382	945.960021972656
3596.69309700462	951.960021972656
3598.44820376756	945.599975585938
3600.20288695686	945.119995117188
3601.95714674655	947.679992675781
3603.71098331052	942.880004882813
3605.46439682244	945.880004882813
3607.21738745581	945.440002441406
3608.96995538399	947.359985351563
3610.7221007801	946.159973144531
3612.47382381712	952.159973144531
3614.22512466785	945.799987792969
3615.97600350489	938.280029296875
3617.72646050068	944.440002441406
3619.47649582746	955.47998046875
3621.2261096573	946.239990234375
3622.97530216209	951.400024414063
3624.72407351354	945.440002441406
3626.47242388315	943.159973144531
3628.22035344229	941.119995117188
3629.96786236209	942.080017089844
3631.71495081353	945.47998046875
3633.46161896741	945.719970703125
3635.20786699432	947
3636.95369506469	947.799987792969
3638.69910334876	947.039978027344
3640.44409201656	948.159973144531
3642.18866123798	945.52001953125
3643.93281118269	947.840026855469
3645.67654202018	942.919982910156
3647.41985391976	943.919982910156
3649.16274705054	945.599975585938
3650.90522158147	947.119995117188
3652.64727768129	947.880004882813
3654.38891551854	943.679992675781
3656.13013526161	953.960021972656
3657.87093707867	942.599975585938
3659.6113211377	945.559997558594
3661.35128760653	950.080017089844
3663.09083665274	951.359985351563
3664.82996844378	943.599975585938
3666.56868314686	947.719970703125
3668.30698092902	944.799987792969
3670.04486195712	951.159973144531
3671.78232639782	946.400024414063
3673.51937441757	951
3675.25600618265	941.559997558594
3676.99222185915	956.840026855469
3678.72802161294	947.400024414063
3680.46340560973	943.239990234375
3682.19837401502	940.559997558594
3683.9329269941	953.080017089844
3685.66706471209	947.559997558594
3687.40078733392	952
3689.13409502429	946.47998046875
3690.86698794774	947.799987792969
3692.59946626859	951.960021972656
3694.33153015099	949.320007324219
3696.06317975887	957.880004882813
3697.79441525596	950.200012207031
3699.52523680581	943.320007324219
3701.25564457177	949.52001953125
3702.98563871698	952.359985351563
3704.7152194044	947.559997558594
3706.44438679676	953
3708.17314105662	951.719970703125
3709.90148234634	950.599975585938
3711.62941082806	951.719970703125
3713.35692666373	951.200012207031
3715.08403001511	953.559997558594
3716.81072104373	948.239990234375
3718.53699991096	950.320007324219
3720.26286677792	953.679992675781
3721.98832180558	948.119995117188
3723.71336515466	951.239990234375
3725.43799698571	958.960021972656
3727.16221745906	951.400024414063
3728.88602673483	958.159973144531
3730.60942497296	953.640014648438
3732.33241233317	952.760009765625
3734.05498897498	945.679992675781
3735.77715505769	956.52001953125
3737.49891074042	955.799987792969
3739.22025618205	949.280029296875
3740.9411915413	961.599975585938
3742.66171697665	953.880004882813
3744.38183264637	954.880004882813
3746.10153870854	949.840026855469
3747.82083532102	954.960021972656
3749.53972264148	949.840026855469
3751.25820082735	955.039978027344
3752.97627003589	952.679992675781
3754.69393042411	952.200012207031
3756.41118214884	950.840026855469
3758.12802536669	953.280029296875
3759.84446023406	951.599975585938
3761.56048690714	958.640014648438
3763.2761055419	956.960021972656
3764.99131629411	954.320007324219
3766.70611931932	956.640014648438
3768.42051477289	947.200012207031
3770.13450280992	957.200012207031
3771.84808358535	954.359985351563
3773.56125725387	956
3775.27402396997	949.799987792969
3776.98638388793	952.039978027344
3778.69833716179	958
3780.40988394541	952.080017089844
3782.12102439242	956.200012207031
3783.83175865622	954.799987792969
3785.54208689002	952.47998046875
3787.25200924679	956.039978027344
3788.96152587929	959.280029296875
3790.67063694008	957.119995117188
3792.37934258148	958.080017089844
3794.08764295559	955.47998046875
3795.79553821432	960.760009765625
3797.50302850932	953.400024414063
3799.21011399205	959.440002441406
3800.91679481376	954.760009765625
3802.62307112543	962.200012207031
3804.32894307788	949.400024414063
3806.03441082168	957.599975585938
3807.73947450715	957.359985351563
3809.44413428445	956.119995117188
3811.14839030347	955.640014648438
3812.8522427139	950.880004882813
3814.5556916652	953.440002441406
3816.2587373066	949.200012207031
3817.96137978712	948.760009765625
3819.66361925556	960.080017089844
3821.36545586047	960.320007324219
3823.06688975019	949.799987792969
3824.76792107284	957.080017089844
3826.46854997631	952.440002441406
3828.16877660826	952.640014648438
3829.86860111614	954.960021972656
3831.56802364714	960.200012207031
3833.26704434826	951.840026855469
3834.96566336625	959.159973144531
3836.66388084763	959.840026855469
3838.36169693871	959.880004882813
3840.05911178555	953.200012207031
3841.756125534	953.159973144531
3843.45273832967	957.239990234375
3845.14895031794	956.039978027344
3846.84476164396	957.039978027344
3848.54017245265	953.239990234375
3850.2351828887	952.440002441406
3851.92979309657	953.559997558594
3853.62400322048	958.159973144531
3855.31781340442	956.280029296875
3857.01122379217	956.559997558594
3858.70423452724	968
3860.39684575292	957.400024414063
3862.08905761229	958.320007324219
3863.78087024815	965.159973144531
3865.47228380311	958.239990234375
3867.16329841952	960.599975585938
3868.85391423949	953.239990234375
3870.54413140492	958.039978027344
3872.23395005745	954.239990234375
3873.92337033848	961.840026855469
3875.6123923892	957.320007324219
3877.30101635053	957.960021972656
3878.98924236318	957.719970703125
3880.6770705676	960.919982910156
3882.36450110402	955.799987792969
3884.05153411241	959.320007324219
3885.73816973252	954.880004882813
3887.42440810385	954.239990234375
3889.11024936566	961.719970703125
3890.79569365697	965.880004882813
3892.48074111655	963
3894.16539188295	963.799987792969
3895.84964609446	960.159973144531
3897.53350388913	963.52001953125
3899.21696540478	958.52001953125
3900.90003077896	956.840026855469
3902.58270014899	966.159973144531
3904.26497365197	964
3905.94685142473	962.320007324219
3907.62833360384	968.919982910156
3909.30942032565	965.52001953125
3910.99011172627	960.960021972656
3912.67040794154	959.200012207031
3914.35030910707	963.52001953125
3916.02981535822	961.320007324219
3917.70892683009	952.919982910156
3919.38764365755	956.320007324219
3921.06596597521	961.919982910156
3922.74389391745	962.359985351563
3924.42142761836	958.280029296875
3926.09856721184	962.239990234375
3927.77531283147	962.880004882813
3929.45166461066	961.880004882813
3931.12762268248	970.159973144531
3932.80318717982	961.320007324219
3934.4783582353	966.52001953125
3936.15313598127	963.52001953125
3937.82752054984	963.200012207031
3939.50151207287	960.640014648438
3941.17511068195	958.359985351563
3942.84831650845	968.52001953125
3944.52112968345	966.599975585938
3946.19355033779	959.159973144531
3947.86557860206	955.159973144531
3949.5372146066	966.919982910156
3951.20845848148	962.239990234375
3952.8793103565	966.280029296875
3954.54977036124	959
3956.21983862501	963.080017089844
3957.88951527684	968.52001953125
3959.55880044554	963.440002441406
3961.22769425962	966.359985351563
3962.89619684736	969
3964.56430833679	959.52001953125
3966.23202885564	972.760009765625
3967.89935853142	966.119995117188
3969.56629749136	971.840026855469
3971.23284586243	971.119995117188
3972.89900377136	965.039978027344
3974.56477134456	963.320007324219
3976.23014870826	964.359985351563
3977.89513598836	974.799987792969
3979.55973331054	958.159973144531
3981.22394080019	967.280029296875
3982.88775858244	966.599975585938
3984.55118678218	955.599975585938
3986.214225524	970.599975585938
3987.87687493225	964.880004882813
3989.539135131	964
3991.20100624407	968.119995117188
3992.862488395	958
3994.52358170707	964.960021972656
3996.18428630328	970.119995117188
3997.8446023064	970.239990234375
3999.50452983887	972
4001.16406902292	972.679992675781
4002.82321998049	962.239990234375
4004.48198283323	967.239990234375
4006.14035770255	969.599975585938
4007.79834470958	967.359985351563
4009.45594397517	969.159973144531
4011.11315561992	969.840026855469
4012.76997976414	968.200012207031
4014.42641652787	974.880004882813
4016.08246603089	965.119995117188
4017.7381283927	969.559997558594
4019.3934037325	971.840026855469
4021.04829216928	965.440002441406
4022.70279382169	973.47998046875
4024.35690880815	969.960021972656
4026.01063724678	970.760009765625
4027.66397925544	970.239990234375
4029.3169349517	973.840026855469
4030.96950445288	971.840026855469
4032.62168787598	976.320007324219
4034.27348533777	976.599975585938
4035.92489695471	974
4037.57592284299	973.080017089844
4039.22656311853	965.559997558594
4040.87681789698	968.960021972656
4042.52668729366	972.119995117188
4044.17617142368	967.960021972656
4045.82527040183	975.359985351563
4047.47398434262	976.320007324219
4049.1223133603	972.200012207031
4050.7702575688	974.840026855469
4052.41781708182	974
4054.06499201272	975.960021972656
4055.71178247464	977.880004882813
4057.35818858039	975.039978027344
4059.00421044251	976.440002441406
4060.64984817325	966.840026855469
4062.29510188459	975.52001953125
4063.93997168823	978.760009765625
4065.58445769556	975.960021972656
4067.2285600177	974.960021972656
4068.87227876548	977.719970703125
4070.51561404944	985.799987792969
4072.15856597984	982.840026855469
4073.80113466666	981.52001953125
4075.44332021957	976.679992675781
4077.08512274797	976.47998046875
4078.72654236096	982.679992675781
4080.36757916736	971.200012207031
4082.00823327569	977.760009765625
4083.6485047942	986.679992675781
4085.28839383082	977.760009765625
4086.9279004932	982.280029296875
4088.56702488872	977.280029296875
4090.20576712445	986.239990234375
4091.84412730717	982.760009765625
4093.48210554335	978.159973144531
4095.11970193919	984.320007324219
4096.7569166006	986.960021972656
4098.39374963318	981.599975585938
4100.03020114223	979.239990234375
4101.66627123279	975.719970703125
4103.30196000955	982.880004882813
4104.93726757695	984.559997558594
4106.57219403912	986.239990234375
4108.2067394999	986.960021972656
4109.84090406281	984.640014648438
4111.47468783109	987.960021972656
4113.10809090768	979.960021972656
4114.74111339523	979.640014648438
4116.37375539606	981.280029296875
4118.00601701224	983.679992675781
4119.63789834548	979.280029296875
4121.26939949725	971.52001953125
4122.90052056869	980.039978027344
4124.53126166062	987.039978027344
4126.16162287359	983.559997558594
4127.79160430784	988.640014648438
4129.42120606331	985.359985351563
4131.05042823961	983.280029296875
4132.67927093608	984.440002441406
4134.30773425175	991.919982910156
4135.93581828533	987.559997558594
4137.56352313524	994.880004882813
4139.19084889959	987.47998046875
4140.81779567618	986.159973144531
4142.44436356252	992.080017089844
4144.07055265578	984.320007324219
4145.69636305286	986.760009765625
4147.32179485034	995
4148.94684814448	994.320007324219
4150.57152303124	987.440002441406
4152.19581960629	989.320007324219
4153.81973796495	984.960021972656
4155.44327820226	987.559997558594
4157.06644041296	992.239990234375
4158.68922469144	989.239990234375
4160.31163113181	990.840026855469
4161.93365982786	988.840026855469
4163.55531087308	991.880004882813
4165.17658436062	992.559997558594
4166.79748038333	993.52001953125
4168.41799903377	987.280029296875
4170.03814040415	998.760009765625
4171.65790458639	999.679992675781
4173.27729167209	999.799987792969
4174.89630175252	989.840026855469
4176.51493491865	997.359985351563
4178.13319126113	1000.76000976563
4179.75107087031	1005.03997802734
4181.3685738362	995.320007324219
4182.98570024849	990.119995117188
4184.60245019655	998.760009765625
4186.21882376948	989.760009765625
4187.83482105601	998.880004882813
4189.45044214456	988.960021972656
4191.06568712324	997.119995117188
4192.68055607984	1001.47998046875
4194.29504910182	991.840026855469
4195.90916627633	995.280029296875
4197.52290769019	998.159973144531
4199.1362734299	997.719970703125
4200.74926358165	997
4202.36187823129	995.320007324219
4203.97411746435	1006.55999755859
4205.58598136604	996.239990234375
4207.19747002124	998.840026855469
4208.80858351453	999.400024414063
4210.41932193014	998.760009765625
4212.02968535196	995.239990234375
4213.63967386359	990.359985351563
4215.24928754829	1004.55999755859
4216.85852648899	1008
