8.06983155538034	60832.76171875
10.8523628815847	19761.650390625
13.6339268128075	5561.009765625
16.4145241586341	3431.18994140625
19.1941557270286	1730.82995605469
21.9728223243648	1539.89001464844
24.7505247554232	1333.91003417969
27.5272638233981	1208.86999511719
30.3030403298867	1112.4599609375
33.0778550749279	1051.93005371094
35.8517088569479	926.380004882813
38.6246024728463	882.659973144531
41.3965367178943	818.219970703125
44.1675123858447	775.369995117188
46.9375302688736	776.330017089844
49.7065911575747	772.580017089844
52.4746958410135	763.169982910156
55.2418451066927	742.789978027344
58.0080397405708	707.909973144531
60.7732805270517	688.619995117188
63.5375682490068	673.619995117188
66.3009036877731	665.440002441406
69.0632876231389	655.619995117188
71.824720833382	650.380004882813
74.5852040952316	643.909973144531
77.3447381839102	643.869995117188
80.1033238731276	638.809997558594
82.8609619350508	631.77001953125
85.617653140358	630.030029296875
88.3733982582084	629.760009765625
91.1281980562523	637.890014648438
93.8820533006568	648.200012207031
96.634964756084	647.630004882813
99.3869331856808	641.559997558594
102.137959351128	631.599975585938
104.888044012621	635.669982910156
107.637187928843	646.330017089844
110.385391857023	656.47998046875
113.132656552911	673.27001953125
115.87898277078	696.719970703125
118.624371263418	729.409973144531
121.368822782174	771.530029296875
124.112338076918	811
126.854917896064	835.640014648438
129.596562986579	833.669982910156
132.337274093958	803.880004882813
135.077051962269	770.849975585938
137.815897334111	747.640014648438
140.553810950677	735.330017089844
143.290793551678	722.47998046875
146.026845875436	695.280029296875
148.761968658799	661.109985351563
151.496162637203	631.159973144531
154.229428544681	607.760009765625
156.96176711382	589.599975585938
159.693179075793	578.219970703125
162.423665160347	572.859985351563
165.153226095856	567.22998046875
167.881862609253	563.469970703125
170.609575426077	559.200012207031
173.336365270466	557.650024414063
176.062232865157	553.940002441406
178.787178931499	554.669982910156
181.511204189453	553.030029296875
184.234309357581	556.619995117188
186.956495153072	557.739990234375
189.67776229172	562.359985351563
192.398111487968	568.77001953125
195.117543454853	580.890014648438
197.836058904063	592.330017089844
200.553658545909	604.650024414063
203.270343089341	614.190002441406
205.986113241964	611.690002441406
208.700969709988	600.030029296875
211.414913198297	585.039978027344
214.127944410428	572.97998046875
216.840064048546	567.469970703125
219.551272813492	562.440002441406
222.26157140476	558.47998046875
224.970960520503	555.460021972656
227.679440857538	552.539978027344
230.387013111368	549.840026855469
233.093677976139	550.530029296875
235.799436144692	546.659973144531
238.504288308535	546.080017089844
241.208235157882	546.849975585938
243.911277381588	544.619995117188
246.613415667244	544.070007324219
249.314650701091	544.989990234375
252.01498316809	542.789978027344
254.714413751892	541.390014648438
257.412943134845	539.140014648438
260.110571998008	539.77001953125
262.807301021136	540.210021972656
265.503130882699	539.390014648438
268.198062259892	538.960021972656
270.892095828612	537.97998046875
273.585232263467	536.27001953125
276.277472237817	537.780029296875
278.968816423716	537.200012207031
281.659265491976	536.47998046875
284.348820112117	535.030029296875
287.037480952397	534.340026855469
289.725248679829	533.619995117188
292.412123960149	534.380004882813
295.09810745785	531.72998046875
297.783199836165	531.969970703125
300.467401757065	533.010009765625
303.150713881315	531.299987792969
305.833136868386	530.75
308.514671376544	531.830017089844
311.195318062804	531.049987792969
313.875077582947	529.799987792969
316.553950591529	529.52001953125
319.231937741872	528.549987792969
321.909039686061	528.309997558594
324.585257074981	527.700012207031
327.260590558297	528.010009765625
329.935040784443	528.97998046875
332.608608400629	527.489990234375
335.281294052886	528.049987792969
337.953098386021	526.659973144531
340.624022043651	526.489990234375
343.294065668148	527.159973144531
345.963229900748	525.77001953125
348.631515381437	527.619995117188
351.298922749048	524.710021972656
353.965452641199	526.530029296875
356.63110569433	525.150024414063
359.295882543702	523.710021972656
361.959783823395	524.710021972656
364.622810166292	524.929992675781
367.284962204131	524.830017089844
369.946240567458	524.72998046875
372.606645885655	524.559997558594
375.266178786937	524.289978027344
377.924839898355	523.869995117188
380.582629845806	523.590026855469
383.239549254017	523.380004882813
385.895598746575	523.340026855469
388.550778945909	523.700012207031
391.205090473288	524.090026855469
393.858533948859	522.450012207031
396.511109991594	521.799987792969
399.162819219365	521.669982910156
401.813662248866	522.659973144531
404.463639695684	521.890014648438
407.11275217425	521.239990234375
409.761000297891	520.27001953125
412.408384678808	521.119995117188
415.054905928044	520.669982910156
417.70056465556	520.330017089844
420.345361470175	521.369995117188
422.989296979605	520.590026855469
425.632371790465	521.179992675781
428.274586508222	520.72998046875
430.915941737269	521.070007324219
433.556438080899	521.989990234375
436.196076141276	521.359985351563
438.834856519486	520.619995117188
441.472779815522	520.97998046875
444.109846628261	521.150024414063
446.746057555515	521.119995117188
449.381413194	520.929992675781
452.015914139337	520.489990234375
454.649560986074	521.609985351563
457.282354327696	520.559997558594
459.914294756583	521.460021972656
462.54538286405	521.130004882813
465.175619240353	521.830017089844
467.805004474664	520.239990234375
470.4335391551	521.830017089844
473.061223868709	520.409973144531
475.688059201479	521.570007324219
478.314045738346	519.830017089844
480.939184063187	520.330017089844
483.56347475882	520.52001953125
486.186918407029	519.049987792969
488.809515588536	519.340026855469
491.43126688302	518.969970703125
494.052172869133	519.580017089844
496.672234124471	518.909973144531
499.2914512256	519.739990234375
501.909824748045	518.700012207031
504.527355266328	519.409973144531
507.1440433539	517.489990234375
509.759889583206	518.219970703125
512.374894525683	518.059997558594
514.989058751726	518.049987792969
517.602382830721	518.460021972656
520.214867331028	517.630004882813
522.826512820009	517.25
525.437319864001	517.969970703125
528.047289028353	518.200012207031
530.656420877386	517.809997558594
533.26471597443	517.090026855469
535.872174881806	516.989990234375
538.478798160851	516.789978027344
541.084586371913	517.559997558594
543.689540074311	518.409973144531
546.293659826411	517.849975585938
548.896946185566	516.969970703125
551.499399708168	518.080017089844
554.101020949614	516.309997558594
556.701810464301	516.75
559.301768805695	517.549987792969
561.900896526248	516.909973144531
564.499194177451	517.179992675781
567.096662309833	517.880004882813
569.693301472946	517.929992675781
572.289112215369	517.789978027344
574.884095084746	516.679992675781
577.478250627731	516.400024414063
580.071579390036	516.960021972656
582.664081916419	516.489990234375
585.255758750672	516.059997558594
587.846610435659	517.440002441406
590.436637513277	517.010009765625
593.025840524488	516.200012207031
595.614220009289	517.510009765625
598.201776506783	516.739990234375
600.788510555085	516.940002441406
603.374422691401	516.940002441406
605.959513452001	516.549987792969
608.543783372216	516.820007324219
611.127232986463	517.02001953125
613.709862828216	517.47998046875
616.291673430046	515.969970703125
618.872665323567	515.880004882813
621.452839039522	517.030029296875
624.032195107698	516.650024414063
626.610734056987	516.200012207031
629.188456415358	517.190002441406
631.765362709888	518.719970703125
634.341453466729	516.030029296875
636.91672921115	517.070007324219
639.491190467486	517.289978027344
642.064837759193	516.599975585938
644.637671608829	515.880004882813
647.209692538061	516.460021972656
649.780901067641	517.859985351563
652.351297717453	515.880004882813
654.920883006485	517.27001953125
657.489657452838	515.539978027344
660.057621573719	516.440002441406
662.624775885486	516.640014648438
665.191120903578	516.75
667.756657142582	517.320007324219
670.321385116205	515.799987792969
672.885305337281	516.340026855469
675.448418317769	515.849975585938
678.01072456877	516.789978027344
680.572224600517	517.469970703125
683.132918922368	516.929992675781
685.692808042839	516.630004882813
688.251892469561	515.309997558594
690.810172709356	515.919982910156
693.36764926813	516.150024414063
695.924322650991	516.219970703125
698.480193362163	516.280029296875
701.035261905038	517.130004882813
703.589528782157	516.179992675781
706.142994495228	516.150024414063
708.695659545098	515.690002441406
711.247524431796	516.289978027344
713.798589654508	516.669982910156
716.348855711581	516.049987792969
718.898323100532	516.640014648438
721.44699231806	516.169982910156
723.994863860012	516.130004882813
726.541938221433	515.5
729.088215896528	516.099975585938
731.633697378698	515.830017089844
734.1783831605	516.030029296875
736.722273733721	514.97998046875
739.265369589275	516.109985351563
741.8076712173	516.280029296875
744.349179107116	514.619995117188
746.889893747228	515.669982910156
749.429815625352	515.700012207031
751.968945228383	515.960021972656
754.507283042418	514.719970703125
757.044829552757	514.799987792969
759.581585243912	516.450012207031
762.117550599581	515.119995117188
764.652726102687	515.190002441406
767.187112235341	514.510009765625
769.720709478883	514.969970703125
772.25351831387	515.820007324219
774.785539220055	514.869995117188
777.316772676419	515.070007324219
779.847219161155	514.52001953125
782.376879151701	515.760009765625
784.905753124691	514.890014648438
787.433841555999	514.440002441406
789.961144920717	514.359985351563
792.487663693166	514.179992675781
795.013398346931	514.859985351563
797.538349354784	513.960021972656
800.062517188764	514.169982910156
802.585902320139	514.159973144531
805.108505219404	513.799987792969
807.630326356325	513.960021972656
810.151366199891	513.989990234375
812.671625218338	514.809997558594
815.191103879156	514.690002441406
817.709802649094	514.02001953125
820.227721994123	513.650024414063
822.74486237951	514.299987792969
825.261224269735	515.039978027344
827.776808128563	513.97998046875
830.29161441903	514.340026855469
832.805643603406	514.309997558594
835.318896143227	514.969970703125
837.831372499322	514.380004882813
840.343073131767	514.200012207031
842.853998499914	514.510009765625
845.364149062375	514.340026855469
847.873525277061	514.309997558594
850.382127601141	514.47998046875
852.889956491055	514.309997558594
855.397012402559	514.820007324219
857.903295790638	515.099975585938
860.408807109606	514.190002441406
862.913546813048	515.309997558594
865.417515353821	515.150024414063
867.920713184102	514.52001953125
870.423140755331	514.090026855469
872.924798518251	514.070007324219
875.425686922913	514.799987792969
877.925806418653	514.539978027344
880.42515745411	514.219970703125
882.923740477211	514.739990234375
885.421555935212	514.650024414063
887.918604274663	514.52001953125
890.4148859414	515.559997558594
892.910401380604	513.969970703125
895.405151036729	514.809997558594
897.899135353585	515.039978027344
900.39235477425	513.809997558594
902.884809741165	514.460021972656
905.376500696041	514.830017089844
907.86742807995	514.890014648438
910.357592333259	513.719970703125
912.846993895677	514.75
915.335633206225	514.700012207031
917.823510703252	514.080017089844
920.310626824455	514.510009765625
922.796982006842	513.710021972656
925.282576686758	514.72998046875
927.767411299889	513.969970703125
930.251486281251	514.419982910156
932.734802065205	513.869995117188
935.217359085449	515.330017089844
937.699157775021	514.169982910156
940.1801985663	513.489990234375
942.660481891026	515.669982910156
945.140008180278	515.140014648438
947.618777864472	515.469970703125
950.096791373382	514.539978027344
952.574049136158	514.789978027344
955.050551581278	514.659973144531
957.526299136569	514.799987792969
960.001292229255	515.080017089844
962.475531285873	514.989990234375
964.949016732371	514.25
967.421748994021	514.559997558594
969.893728495469	513.450012207031
972.364955660742	514.090026855469
974.835430913227	514.330017089844
977.305154675679	515.869995117188
979.774127370236	513.859985351563
982.242349418392	513.900024414063
984.709821241033	514.219970703125
987.17654325842	516.140014648438
989.642515890182	514.530029296875
992.107739555351	514.659973144531
994.572214672318	514.099975585938
997.035941658874	515.390014648438
999.498920932188	515.109985351563
1001.96115290882	515.159973144531
1004.42263800473	513.619995117188
1006.88337663524	515.400024414063
1009.3433692151	515.549987792969
1011.80261615844	515.320007324219
1014.26111787878	514.349975585938
1016.71887478905	515.030029296875
1019.17588730156	514.119995117188
1021.63215582805	513.150024414063
1024.08768077964	514.929992675781
1026.54246256687	514.169982910156
1028.99650159967	513.72998046875
1031.4497982874	514.309997558594
1033.90235303881	514.929992675781
1036.35416626207	514.690002441406
1038.80523836477	513.669982910156
1041.2555697539	514.059997558594
1043.70516083588	514.789978027344
1046.15401201654	514.530029296875
1048.60212370113	513.739990234375
1051.04949629433	515.440002441406
1053.49613020022	514.909973144531
1055.94202582234	514.150024414063
1058.38718356364	513.669982910156
1060.83160382647	513.909973144531
1063.27528701266	513.969970703125
1065.71823352344	515.150024414063
1068.16044375947	514.070007324219
1070.60191812087	515
1073.04265700716	513.909973144531
1075.48266081734	514.380004882813
1077.92192994981	514.349975585938
1080.36046480243	513.909973144531
1082.79826577248	514.72998046875
1085.23533325675	514.900024414063
1087.67166765139	514.849975585938
1090.10726935204	514.650024414063
1092.5421387538	514.289978027344
1094.97627625119	515.010009765625
1097.40968223822	513.880004882813
1099.8423571083	513.440002441406
1102.27430125434	514.77001953125
1104.70551506869	515.340026855469
1107.13599894315	514.049987792969
1109.56575326901	514.330017089844
1111.99477843699	515.080017089844
1114.42307483727	514
1116.85064285951	514.130004882813
1119.27748289286	513.75
1121.70359532589	515.010009765625
1124.12898054664	515.469970703125
1126.55363894268	515.27001953125
1128.97757090097	515.450012207031
1131.40077680801	514.380004882813
1133.82325704974	514.599975585938
1136.2450120116	514.429992675781
1138.66604207847	514.419982910156
1141.08634763474	514.989990234375
1143.50592906428	513.869995117188
1145.92478675044	515.309997558594
1148.34292107603	515.130004882813
1150.76033242338	515.039978027344
1153.1770211743	515.450012207031
1155.59298771007	514.890014648438
1158.00823241146	515.090026855469
1160.42275565875	515.25
1162.83655783171	515.159973144531
1165.2496393096	514.849975585938
1167.66200047116	514.869995117188
1170.07364169464	514.549987792969
1172.48456335781	514.700012207031
1174.8947658379	515.049987792969
1177.30424951167	515.119995117188
1179.71301475538	513.900024414063
1182.12106194476	515.700012207031
1184.5283914551	515.940002441406
1186.93500366118	516.340026855469
1189.34089893725	515.359985351563
1191.74607765711	515
1194.15054019408	514.580017089844
1196.55428692095	514.679992675781
1198.95731821006	514.780029296875
1201.35963443325	515.969970703125
1203.76123596189	514.460021972656
1206.16212316686	515.590026855469
1208.56229641854	514.659973144531
1210.96175608688	514.859985351563
1213.3605025413	515.039978027344
1215.75853615078	515.75
1218.15585728382	515.340026855469
1220.55246630843	514.159973144531
1222.94836359216	515.510009765625
1225.3435495021	516.320007324219
1227.73802440484	516.580017089844
1230.13178866654	515.380004882813
1232.52484265287	514.659973144531
1234.91718672904	515.950012207031
1237.30882125981	515.190002441406
1239.69974660944	515.710021972656
1242.08996314178	515.119995117188
1244.47947122019	514.820007324219
1246.86827120757	515.190002441406
1249.25636346638	516.320007324219
1251.64374835861	516.130004882813
1254.0304262458	514.830017089844
1256.41639748904	517.200012207031
1258.80166244897	516.530029296875
1261.18622148579	515.690002441406
1263.57007495922	515.450012207031
1265.95322322856	515.929992675781
1268.33566665265	515.359985351563
1270.7174055899	514.869995117188
1273.09844039826	515
1275.47877143526	514.859985351563
1277.85839905795	515.369995117188
1280.23732362299	515.27001953125
1282.61554548656	516.47998046875
1284.99306500443	516.27001953125
1287.36988253192	516.359985351563
1289.74599842392	515.289978027344
1292.1214130349	515.799987792969
1294.49612671887	515.989990234375
1296.87013982942	516.559997558594
1299.24345271973	516.159973144531
1301.61606574255	515.830017089844
1303.98797925017	515.619995117188
1306.35919359448	516.400024414063
1308.72970912694	515.840026855469
1311.0995261986	516.72998046875
1313.46864516007	516.969970703125
1315.83706636156	516.080017089844
1318.20479015284	516.210021972656
1320.57181688326	515.25
1322.93814690177	516.530029296875
1325.30378055692	516.429992675781
1327.6687181968	516.760009765625
1330.03296016912	516.349975585938
1332.39650682117	516.169982910156
1334.75935849983	515.809997558594
1337.12151555158	516.109985351563
1339.48297832247	515.739990234375
1341.84374715817	516.429992675781
1344.20382240391	515.530029296875
1346.56320440456	516.820007324219
1348.92189350455	516.599975585938
1351.27989004793	516.359985351563
1353.63719437833	517.099975585938
1355.99380683901	517.159973144531
1358.34972777279	516.289978027344
1360.70495752215	515.690002441406
1363.05949642911	518.219970703125
1365.41334483534	516.059997558594
1367.76650308209	516.210021972656
1370.11897151025	515.429992675781
1372.47075046029	516.25
1374.8218402723	517.429992675781
1377.17224128598	516.97998046875
1379.52195384065	516.380004882813
1381.87097827523	516.299987792969
1384.21931492827	518.669982910156
1386.56696413791	517.190002441406
1388.91392624195	516.219970703125
1391.26020157776	517.400024414063
1393.60579048237	517.330017089844
1395.9506932924	516.02001953125
1398.29491034411	516.940002441406
1400.63844197339	516.460021972656
1402.98128851573	517.150024414063
1405.32345030626	518
1407.66492767973	518.090026855469
1410.00572097052	516.859985351563
1412.34583051265	516.150024414063
1414.68525663975	517.289978027344
1417.02399968509	517.140014648438
1419.36205998159	518.239990234375
1421.69943786176	516.549987792969
1424.03613365777	516.440002441406
1426.37214770145	517.289978027344
1428.70748032422	517.570007324219
1431.04213185716	516.780029296875
1433.376102631	517.390014648438
1435.70939297608	517.469970703125
1438.0420032224	517.049987792969
1440.37393369962	517.97998046875
1442.705184737	517.47998046875
1445.03575666348	516.719970703125
1447.36564980763	516.820007324219
1449.69486449765	517.539978027344
1452.02340106144	517.330017089844
1454.35125982649	517.5
1456.67844111997	516.809997558594
1459.00494526869	518.190002441406
1461.33077259913	517.330017089844
1463.65592343739	517.130004882813
1465.98039810926	517.119995117188
1468.30419694015	518.590026855469
1470.62732025515	517.340026855469
1472.94976837901	517.289978027344
1475.27154163612	518.059997558594
1477.59264035055	516.880004882813
1479.91306484598	516.700012207031
1482.23281544583	518.109985351563
1484.55189247313	517.159973144531
1486.87029625058	517.469970703125
1489.18802710054	517.659973144531
1491.50508534507	517.369995117188
1493.82147130583	517.530029296875
1496.13718530422	516.840026855469
1498.45222766128	517.840026855469
1500.76659869769	517.380004882813
1503.08029873384	516.760009765625
1505.39332808978	516.929992675781
1507.70568708522	518.27001953125
1510.01737603957	516.679992675781
1512.32839527187	517.900024414063
1514.63874510091	516.75
1516.94842584506	518.070007324219
1519.25743782245	517.47998046875
1521.56578135084	517.679992675781
1523.87345674769	517.289978027344
1526.18046433013	517.580017089844
1528.486804415	517.119995117188
1530.79247731879	517.179992675781
1533.09748335767	518.630004882813
1535.40182284752	516.52001953125
1537.70549610388	517.52001953125
1540.00850344202	517.630004882813
1542.31084517683	517.200012207031
1544.61252162296	516.539978027344
1546.9135330947	516.849975585938
1549.21387990604	519.049987792969
1551.51356237067	517.909973144531
1553.81258080197	518.159973144531
1556.11093551303	518.369995117188
1558.40862681658	518.909973144531
1560.70565502511	518
1563.00202045076	518.099975585938
1565.29772340541	518.109985351563
1567.59276420058	518.400024414063
1569.88714314755	518.049987792969
1572.18086055725	517.47998046875
1574.47391674033	518.22998046875
1576.76631200717	518.070007324219
1579.0580466678	518.039978027344
1581.34912103199	518.289978027344
1583.6395354092	518.450012207031
1585.92929010861	518.429992675781
1588.21838543909	517.390014648438
1590.50682170921	517.989990234375
1592.79459922728	517.570007324219
1595.08171830129	518.090026855469
1597.36817923896	517.489990234375
1599.65398234769	518.02001953125
1601.93912793465	517.820007324219
1604.22361630665	517.989990234375
1606.50744777026	517.530029296875
1608.79062263176	518.419982910156
1611.07314119714	517.780029296875
1613.35500377209	518.059997558594
1615.63621066205	517.969970703125
1617.91676217216	517.919982910156
1620.19665860727	517.75
1622.47590027197	518.150024414063
1624.75448747054	518.659973144531
1627.03242050703	519.450012207031
1629.30969968516	518.070007324219
1631.58632530841	518.380004882813
1633.86229767997	518.02001953125
1636.13761710275	518.940002441406
1638.41228387941	518.02001953125
1640.6862983123	517.77001953125
1642.95966070354	519.25
1645.23237135493	518.940002441406
1647.50443056804	518.320007324219
1649.77583864414	518.919982910156
1652.04659588428	518.239990234375
1654.31670258917	519.109985351563
1656.58615905931	518.070007324219
1658.85496559492	518.27001953125
1661.12312249595	519.719970703125
1663.39063006206	517.77001953125
1665.65748859269	519.619995117188
1667.923698387	518.780029296875
1670.18925974388	518.869995117188
1672.45417296196	518.340026855469
1674.71843833963	519.109985351563
1676.98205617498	518.989990234375
1679.24502676588	518.330017089844
1681.50735040992	519.489990234375
1683.76902740445	519.780029296875
1686.03005804653	518.27001953125
1688.29044263302	518.760009765625
1690.55018146047	518.390014648438
1692.8092748252	517.969970703125
1695.06772302328	519.809997558594
1697.32552635052	519.359985351563
1699.58268510249	520.090026855469
1701.83919957448	517.690002441406
1704.09507006158	518.619995117188
1706.35029685857	520.059997558594
1708.60488026003	518.97998046875
1710.85882056028	519.590026855469
1713.11211805336	518.570007324219
1715.36477303313	519.440002441406
1717.61678579314	519.890014648438
1719.86815662673	518.890014648438
1722.11888582699	519.530029296875
1724.36897368676	519.669982910156
1726.61842049864	518.72998046875
1728.86722655501	519.159973144531
1731.11539214797	518.369995117188
1733.36291756941	519.650024414063
1735.60980311097	519.330017089844
1737.85604906405	519.419982910156
1740.10165571982	519.460021972656
1742.34662336921	519.539978027344
1744.59095230291	519.580017089844
1746.83464281138	519.200012207031
1749.07769518483	519.400024414063
1751.32010971326	518.5
1753.56188668643	519.679992675781
1755.80302639385	519.469970703125
1758.04352912481	519.260009765625
1760.28339516838	520.359985351563
1762.5226248134	519.580017089844
1764.76121834845	519.039978027344
1766.99917606191	520.070007324219
1769.23649824192	519.440002441406
1771.4731851764	519.869995117188
1773.70923715304	520.320007324219
1775.9446544593	519.690002441406
1778.17943738243	519.719970703125
1780.41358620942	520.179992675781
1782.64710122708	520.320007324219
1784.87998272198	520.159973144531
1787.11223098046	519.669982910156
1789.34384628864	520
1791.57482893242	519.179992675781
1793.80517919749	519.289978027344
1796.03489736931	519.679992675781
1798.26398373312	520.330017089844
1800.49243857396	520.400024414063
1802.72026217662	519.989990234375
1804.94745482571	519.900024414063
1807.17401680559	519.489990234375
1809.39994840043	519.419982910156
1811.62524989417	519.969970703125
1813.84992157055	520.419982910156
1816.07396371308	519.5
1818.29737660506	520.52001953125
1820.5201605296	519.559997558594
1822.74231576958	520.349975585938
1824.96384260767	519.75
1827.18474132633	519.849975585938
1829.40501220779	520.390014648438
1831.62465553414	519.859985351563
1833.84367158718	520.599975585938
1836.06206064856	520.25
1838.27982299969	520.799987792969
1840.49695892179	520.440002441406
1842.71346869587	519.5
1844.92935260275	520.340026855469
1847.144610923	520.309997558594
1849.35924393705	520.559997558594
1851.57325192508	521.070007324219
1853.78663516709	520.869995117188
1855.99939394287	520.700012207031
1858.21152853201	520.409973144531
1860.42303921391	521.010009765625
1862.63392626776	520.900024414063
1864.84418997254	521.210021972656
1867.05383060706	522
1869.2628484499	520.650024414063
1871.47124377948	521.440002441406
1873.679016874	519.510009765625
1875.88616801146	519.780029296875
1878.09269746967	521.210021972656
1880.29860552625	519.780029296875
1882.50389245864	520.409973144531
1884.70855854405	520.530029296875
1886.91260405953	521.97998046875
1889.11602928192	520.669982910156
1891.31883448788	521.619995117188
1893.52101995387	520.989990234375
1895.72258595617	521.150024414063
1897.92353277085	521.22998046875
1900.12386067382	521.869995117188
1902.32356994078	520.489990234375
1904.52266084724	520.609985351563
1906.72113366853	522.52001953125
1908.91898867981	520.619995117188
1911.11622615604	522.090026855469
1913.31284637197	520.539978027344
1915.5088496022	519.739990234375
1917.70423612113	521.169982910156
1919.89900620299	521.460021972656
1922.09316012181	521.739990234375
1924.28669815143	521.650024414063
1926.47962056554	520.830017089844
1928.67192763762	520.919982910156
1930.86361964098	520.940002441406
1933.05469684875	520.849975585938
1935.24515953387	520.849975585938
1937.43500796913	521.97998046875
1939.6242424271	522.159973144531
1941.81286318021	520.679992675781
1944.00087050068	520.559997558594
1946.18826466057	519.75
1948.37504593176	520.950012207031
1950.56121458597	521.960021972656
1952.74677089472	520.909973144531
1954.93171512937	520.619995117188
1957.11604756109	521.330017089844
1959.2997684609	520.679992675781
1961.48287809963	522.059997558594
1963.66537674794	521.669982910156
1965.84726467632	521.349975585938
1968.02854215508	521.119995117188
1970.20920945439	520.650024414063
1972.3892668442	521.200012207031
1974.56871459433	522.27001953125
1976.74755297442	521.789978027344
1978.92578225393	521.739990234375
1981.10340270217	520.929992675781
1983.28041458826	522.599975585938
1985.45681818117	520.840026855469
1987.6326137497	521.710021972656
1989.80780156247	521.679992675781
1991.98238188797	522.010009765625
1994.15635499447	522.869995117188
1996.32972115012	522.72998046875
1998.5024806229	522.200012207031
2000.6746336806	522.559997558594
2002.84618059087	521.700012207031
2005.01712162121	521.030029296875
2007.1874570389	522.080017089844
2009.35718711113	521.97998046875
2011.52631210489	522.109985351563
2013.69483228701	522
2015.86274792417	522.919982910156
2018.03005928287	521.809997558594
2020.19676662949	520.840026855469
2022.36287023021	522.210021972656
2024.52837035107	522.330017089844
2026.69326725796	521.460021972656
2028.8575612166	523.679992675781
2031.02125249255	521.099975585938
2033.18434135123	522.880004882813
2035.34682805788	522.219970703125
2037.50871287762	522.380004882813
2039.66999607537	521.830017089844
2041.83067791594	521.809997558594
2043.99075866397	523.349975585938
2046.15023858391	522.989990234375
2048.30911794011	521.890014648438
2050.46739699675	522.22998046875
2052.62507601785	522.659973144531
2054.78215526727	522.27001953125
2056.93863500875	522.049987792969
2059.09451550585	522.739990234375
2061.24979702199	521.690002441406
2063.40447982045	522.739990234375
2065.55856416433	522.039978027344
2067.71205031661	522.700012207031
2069.86493854012	521.809997558594
2072.01722909754	523.849975585938
2074.16892225137	522.119995117188
2076.32001826402	522.960021972656
2078.4705173977	523.030029296875
2080.62041991452	521.950012207031
2082.7697260764	522.570007324219
2084.91843614514	522.599975585938
2087.06655038239	521.659973144531
2089.21406904967	523.280029296875
2091.36099240832	522.130004882813
2093.50732071957	522.349975585938
2095.65305424449	523.169982910156
2097.79819324402	523.539978027344
2099.94273797893	522.340026855469
2102.08668870989	523.349975585938
2104.23004569739	522.530029296875
2106.3728092018	522.510009765625
2108.51497948334	521.780029296875
2110.65655680209	523.25
2112.79754141799	523.47998046875
2114.93793359086	523.210021972656
2117.07773358035	523.159973144531
2119.21694164599	523.590026855469
2121.35555804716	523.140014648438
2123.49358304311	522.450012207031
2125.63101689297	524.27001953125
2127.76785985569	522.219970703125
2129.90411219011	523.130004882813
2132.03977415494	524.400024414063
2134.17484600874	523.929992675781
2136.30932800994	522.429992675781
2138.44322041684	522.97998046875
2140.57652348758	523.940002441406
2142.70923748021	522.900024414063
2144.8413626526	522.789978027344
2146.97289926252	524.02001953125
2149.10384756759	523.72998046875
2151.2342078253	522.190002441406
2153.363980293	522.419982910156
2155.49316522793	523.969970703125
2157.62176288718	523.429992675781
2159.74977352771	523.719970703125
2161.87719740635	525.239990234375
2164.00403477981	524.22998046875
2166.13028590465	524.090026855469
2168.25595103732	523.859985351563
2170.38103043412	522.590026855469
2172.50552435124	523.179992675781
2174.62943304474	523.960021972656
2176.75275677053	524.289978027344
2178.87549578442	523.169982910156
2180.99765034207	523.760009765625
2183.11922069903	523.840026855469
2185.2402071107	523.640014648438
2187.36060983238	524.890014648438
2189.48042911923	523.280029296875
2191.59966522628	523.719970703125
2193.71831840844	523.440002441406
2195.8363889205	524.929992675781
2197.95387701712	523.75
2200.07078295282	524.840026855469
2202.18710698203	524.349975585938
2204.30284935903	523.530029296875
2206.41801033798	524.190002441406
2208.53259017291	524.619995117188
2210.64658911775	524.200012207031
2212.7600074263	523.849975585938
2214.87284535221	525.760009765625
2216.98510314904	571.669982910156
2219.09678107022	524.820007324219
2221.20787936906	524.869995117188
2223.31839829874	524.25
2225.42833811233	525.679992675781
2227.53769906276	524.700012207031
2229.64648140287	523.890014648438
2231.75468538537	522.780029296875
2233.86231126282	523.969970703125
2235.96935928771	524.460021972656
2238.07582971237	524.159973144531
2240.18172278904	524.169982910156
2242.28703876983	524.799987792969
2244.39177790674	523.299987792969
2246.49594045162	524.950012207031
2248.59952665625	525.539978027344
2250.70253677226	524.549987792969
2252.8049710512	524.710021972656
2254.90682974444	525
2257.0081131033	524.090026855469
2259.10882137894	524.02001953125
2261.20895482243	523.789978027344
2263.30851368471	523.880004882813
2265.40749821662	524.219970703125
2267.50590866887	524.679992675781
2269.60374529206	524.760009765625
2271.70100833668	524.669982910156
2273.7976980531	524.710021972656
2275.89381469159	523.75
2277.98935850229	524.679992675781
2280.08432973524	524.440002441406
2282.17872864035	524.72998046875
2284.27255546745	524.340026855469
2286.36581046622	524.080017089844
2288.45849388626	524.950012207031
2290.55060597703	524.929992675781
2292.6421469879	525.909973144531
2294.73311716813	524.710021972656
2296.82351676684	524.140014648438
2298.91334603309	524.469970703125
2301.00260521578	525
2303.09129456372	525.599975585938
2305.17941432563	524.590026855469
2307.26696475008	525.400024414063
2309.35394608557	525.140014648438
2311.44035858046	524.179992675781
2313.52620248302	524.47998046875
2315.61147804142	524.380004882813
2317.69618550369	524.349975585938
2319.78032511779	526.390014648438
2321.86389713153	524.039978027344
2323.94690179265	526.080017089844
2326.02933934877	525.690002441406
2328.11121004741	525.929992675781
2330.19251413595	527.059997558594
2332.27325186172	527.359985351563
2334.35342347188	524.460021972656
2336.43302921355	525.619995117188
2338.51206933369	524.559997558594
2340.59054407919	525.429992675781
2342.6684536968	524.719970703125
2344.74579843321	526.190002441406
2346.82257853497	526.299987792969
2348.89879424854	524.549987792969
2350.97444582026	526
2353.0495334964	526.929992675781
2355.12405752309	526.150024414063
2357.19801814637	524.890014648438
2359.27141561218	525.130004882813
2361.34425016636	524.429992675781
2363.41652205464	525.700012207031
2365.48823152265	524.940002441406
2367.55937881591	526.650024414063
2369.62996417985	526.27001953125
2371.69998785979	526.799987792969
2373.76945010095	525.809997558594
2375.83835114845	525.200012207031
2377.90669124731	525.669982910156
2379.97447064244	526.799987792969
2382.04168957866	525.140014648438
2384.10834830069	525.559997558594
2386.17444705313	525.669982910156
2388.2399860805	526.989990234375
2390.30496562721	525.119995117188
2392.36938593758	526.450012207031
2394.43324725583	527.159973144531
2396.49654982606	525.859985351563
2398.55929389228	525.450012207031
2400.62147969843	527.070007324219
2402.6831074883	525.630004882813
2404.74417750563	525.559997558594
2406.80468999402	526.049987792969
2408.864645197	527.669982910156
2410.92404335799	527.429992675781
2412.98288472031	525.789978027344
2415.04116952721	526.450012207031
2417.09889802179	526.849975585938
2419.15607044709	526.25
2421.21268704604	525.72998046875
2423.2687480615	526.619995117188
2425.32425373618	526.590026855469
2427.37920431274	525.440002441406
2429.43360003373	526.799987792969
2431.48744114158	527.049987792969
2433.54072787867	526.809997558594
2435.59346048723	525.929992675781
2437.64563920945	526.570007324219
2439.69726428737	525.760009765625
2441.74833596299	526.630004882813
2443.79885447815	526.109985351563
2445.84882007466	525.969970703125
2447.8982329942	527.75
2449.94709347834	526.299987792969
2451.99540176859	526.109985351563
2454.04315810636	527.630004882813
2456.09036273293	526.440002441406
2458.13701588954	527.169982910156
2460.18311781729	527.190002441406
2462.2286687572	526.869995117188
2464.27366895022	526.969970703125
2466.31811863717	526.919982910156
2468.3620180588	528.320007324219
2470.40536745576	527.799987792969
2472.4481670686	526.77001953125
2474.49041713778	526.179992675781
2476.53211790368	528.169982910156
2478.57326960658	528.739990234375
2480.61387248665	528.02001953125
2482.653926784	527.830017089844
2484.69343273862	527.960021972656
2486.7323905904	527.169982910156
2488.77080057919	526.260009765625
2490.80866294469	526.5
2492.84597792655	527.47998046875
2494.88274576429	526.52001953125
2496.91896669736	527.469970703125
2498.95464096513	527.940002441406
2500.98976880687	526.659973144531
2503.02435046173	526.5
2505.05838616882	527.669982910156
2507.09187616712	527.440002441406
2509.12482069552	526.419982910156
2511.15721999285	527.450012207031
2513.18907429783	527.549987792969
2515.22038384908	527.440002441406
2517.25114888514	527.820007324219
2519.28136964447	526.640014648438
2521.31104636542	527.799987792969
2523.34017928627	527.72998046875
2525.36876864519	527.539978027344
2527.39681468027	527.650024414063
2529.42431762951	529.039978027344
2531.45127773083	528.099975585938
2533.47769522204	527.52001953125
2535.50357034088	527.830017089844
2537.528903325	527.590026855469
2539.55369441193	526.849975585938
2541.57794383915	527.580017089844
2543.60165184405	528.440002441406
2545.62481866389	528.109985351563
2547.64744453588	526.679992675781
2549.66952969714	525.950012207031
2551.69107438467	526.950012207031
2553.71207883542	527.559997558594
2555.73254328624	528.659973144531
2557.75246797387	527.840026855469
2559.77185313499	527.840026855469
2561.79069900617	529.330017089844
2563.8090058239	528.159973144531
2565.82677382461	528.02001953125
2567.84400324459	527.700012207031
2569.86069432008	528.859985351563
2571.87684728722	529.469970703125
2573.89246238206	528.830017089844
2575.90753984059	527.159973144531
2577.92207989865	528.030029296875
2579.93608279207	527.669982910156
2581.94954875652	529.02001953125
2583.96247802765	528.630004882813
2585.97487084098	527.97998046875
2587.98672743194	528.830017089844
2589.99804803591	527.400024414063
2592.00883288814	529.049987792969
2594.01908222382	528.75
2596.02879627805	527.719970703125
2598.03797528584	529.359985351563
2600.04661948211	529.440002441406
2602.05472910171	529.359985351563
2604.06230437937	527.960021972656
2606.06934554978	527.869995117188
2608.07585284749	528.52001953125
2610.08182650701	529.210021972656
2612.08726676274	527.739990234375
2614.09217384901	528.210021972656
2616.09654800005	529.210021972656
2618.10038945	527.799987792969
2620.10369843292	529.460021972656
2622.1064751828	526.789978027344
2624.10871993352	528.27001953125
2626.11043291889	529.349975585938
2628.11161437263	529.02001953125
2630.11226452836	529.299987792969
2632.11238361965	528.330017089844
2634.11197187995	528.280029296875
2636.11102954264	527.390014648438
2638.10955684101	528.950012207031
2640.10755400826	528.309997558594
2642.10502127751	529.869995117188
2644.10195888181	528.52001953125
2646.0983670541	528.349975585938
2648.09424602725	529.330017089844
2650.08959603404	530.200012207031
2652.08441730715	529.619995117188
2654.07871007921	528.690002441406
2656.07247458272	529.390014648438
2658.06571105014	529.570007324219
2660.05841971383	529.760009765625
2662.05060080604	528.72998046875
2664.04225455896	529.25
2666.03338120469	529.359985351563
2668.02398097525	529.080017089844
2670.01405410256	530.390014648438
2672.00360081847	530.049987792969
2673.99262135475	528.97998046875
2675.98111594307	529.789978027344
2677.969084815	528.690002441406
2679.95652820207	529.010009765625
2681.94344633569	528.869995117188
2683.92983944721	528.869995117188
2685.91570776785	527.299987792969
2687.90105152882	529.150024414063
2689.88587096117	530.369995117188
2691.87016629591	528.150024414063
2693.85393776395	529.219970703125
2695.83718559613	528.02001953125
2697.81991002318	529.52001953125
2699.80211127576	529.25
2701.78378958445	529.97998046875
2703.76494517974	531.059997558594
2705.74557829204	529.890014648438
2707.72568915166	528.809997558594
2709.70527798885	529.219970703125
2711.68434503375	529.390014648438
2713.66289051643	528.919982910156
2715.64091466688	528.969970703125
2717.61841771499	529.900024414063
2719.59539989058	528.179992675781
2721.57186142338	530.52001953125
2723.54780254304	530.27001953125
2725.52322347911	529.570007324219
2727.49812446106	530.950012207031
2729.4725057183	529.099975585938
2731.44636748013	530.219970703125
2733.41970997577	529.119995117188
2735.39253343436	530.619995117188
2737.36483808495	529.799987792969
2739.33662415651	529.099975585938
2741.30789187792	529.239990234375
2743.27864147799	529.440002441406
2745.24887318543	530.630004882813
2747.21858722887	530.590026855469
2749.18778383685	530.830017089844
2751.15646323785	530.869995117188
2753.12462566021	530.909973144531
2755.09227133226	529.570007324219
2757.05940048219	530.030029296875
2759.02601333812	529.679992675781
2760.99211012809	529.25
2762.95769108006	530.609985351563
2764.92275642189	530.72998046875
2766.88730638136	531.539978027344
2768.85134118618	530.169982910156
2770.81486106395	530.27001953125
2772.7778662422	529.609985351563
2774.74035694839	530.030029296875
2776.70233340987	530.359985351563
2778.6637958539	530.109985351563
2780.62474450768	529.590026855469
2782.58517959831	529.900024414063
2784.54510135282	530.409973144531
2786.50450999813	530.880004882813
2788.46340576109	530.72998046875
2790.42178886846	529.869995117188
2792.37965954693	530.419982910156
2794.33701802309	530.440002441406
2796.29386452343	530.190002441406
2798.25019927439	529.890014648438
2800.20602250231	531.210021972656
2802.16133443342	530.419982910156
2804.11613529389	529.659973144531
2806.07042530982	531.119995117188
2808.02420470718	530.719970703125
2809.9774737119	530.159973144531
2811.93023254979	529.530029296875
2813.88248144658	530.679992675781
2815.83422062794	530.22998046875
2817.78545031943	529.659973144531
2819.73617074652	530.140014648438
2821.68638213461	530.239990234375
2823.63608470901	530.570007324219
2825.58527869495	530.369995117188
2827.53396431754	529.919982910156
2829.48214180186	530.590026855469
2831.42981137285	530.239990234375
2833.3769732554	531.599975585938
2835.3236276743	529.929992675781
2837.26977485424	530.140014648438
2839.21541501986	530.47998046875
2841.16054839568	529.77001953125
2843.10517520614	529.609985351563
2845.04929567562	530.309997558594
2846.99291002837	530.52001953125
2848.93601848857	529.669982910156
2850.87862128034	530
2852.82071862768	531.260009765625
2854.76231075451	530.780029296875
2856.70339788467	531.179992675781
2858.64398024191	530.289978027344
2860.5840580499	531.77001953125
2862.52363153221	530.849975585938
2864.46270091233	529.429992675781
2866.40126641365	530.450012207031
2868.33932825949	531.559997558594
2870.27688667309	530.409973144531
2872.21394187757	531.119995117188
2874.15049409599	529.789978027344
2876.0865435513	530.969970703125
2878.02209046639	531.97998046875
2879.95713506404	529.669982910156
2881.89167756695	529.52001953125
2883.82571819772	531.619995117188
2885.75925717889	532.02001953125
2887.69229473289	531.989990234375
2889.62483108206	530.809997558594
2891.55686644866	530.780029296875
2893.48840105485	530.320007324219
2895.41943512273	530.429992675781
2897.34996887426	531.52001953125
2899.28000253138	531.710021972656
2901.20953631588	531.109985351563
2903.13857044948	530.5
2905.06710515384	530.969970703125
2906.99514065049	531.580017089844
2908.92267716088	530.950012207031
2910.84971490639	532.510009765625
2912.77625410829	532.159973144531
2914.70229498778	531.469970703125
2916.62783776595	531.169982910156
2918.55288266381	530.690002441406
2920.47742990228	530.760009765625
2922.40147970219	531.580017089844
2924.32503228427	531.700012207031
2926.24808786918	531.169982910156
2928.17064667748	531.030029296875
2930.09270892964	532.349975585938
2932.01427484602	531.940002441406
2933.93534464692	531.780029296875
2935.85591855253	531.989990234375
2937.77599678298	530.869995117188
2939.69557955825	530.380004882813
2941.61466709828	532.929992675781
2943.5332596229	531.200012207031
2945.45135735185	531.190002441406
2947.36896050479	532.340026855469
2949.28606930127	531.320007324219
2951.20268396075	532.5
2953.11880470261	532.650024414063
2955.03443174614	532.179992675781
2956.94956531053	531.72998046875
2958.86420561487	531.320007324219
2960.77835287817	532.080017089844
2962.69200731935	530.489990234375
2964.60516915722	531.799987792969
2966.51783861053	532.25
2968.4300158979	531.75
2970.34170123787	532.900024414063
2972.2528948489	532.210021972656
2974.16359694936	530.719970703125
2976.07380775749	532.289978027344
2977.98352749148	531.650024414063
2979.8927563694	532.840026855469
2981.80149460923	531.580017089844
2983.70974242887	531.75
2985.61750004611	531.27001953125
2987.52476767866	531.809997558594
2989.43154554413	531.590026855469
2991.33783386002	531.22998046875
2993.24363284377	531.940002441406
2995.14894271269	532.780029296875
2997.05376368402	531.940002441406
2998.95809597489	532.219970703125
3000.86193980235	531.900024414063
3002.76529538334	531.840026855469
3004.6681629347	532.419982910156
3006.57054267321	532.320007324219
3008.47243481552	531.700012207031
3010.37383957819	532.700012207031
3012.2747571777	531.820007324219
3014.1751878304	532.130004882813
3016.0751317526	531.919982910156
3017.97458916046	532.669982910156
3019.87356027006	531.77001953125
3021.77204529741	532.809997558594
3023.67004445838	532.47998046875
3025.56755796878	531.299987792969
3027.46458604429	533.150024414063
3029.36112890054	531.859985351563
3031.257186753	533.440002441406
3033.1527598171	532.179992675781
3035.04784830814	532.700012207031
3036.94245244134	532.590026855469
3038.83657243179	532.349975585938
3040.73020849453	532.030029296875
3042.62336084447	531.909973144531
3044.51602969643	532.109985351563
3046.40821526512	531.619995117188
3048.29991776518	531.900024414063
3050.19113741111	532.650024414063
3052.08187441735	532.489990234375
3053.97212899823	531.820007324219
3055.86190136796	533.289978027344
3057.75119174068	532.159973144531
3059.6400003304	532.049987792969
3061.52832735108	532.260009765625
3063.41617301651	532.47998046875
3065.30353754043	533.429992675781
3067.19042113648	532.47998046875
3069.07682401818	532.580017089844
3070.96274639895	531.890014648438
3072.84818849212	532.890014648438
3074.73315051091	532.200012207031
3076.61763266844	533.609985351563
3078.50163517775	532.830017089844
3080.38515825174	533.409973144531
3082.26820210325	533.359985351563
3084.15076694498	532.460021972656
3086.03285298956	533.880004882813
3087.91446044948	533.049987792969
3089.79558953718	533.469970703125
3091.67624046495	533.469970703125
3093.55641344501	533.489990234375
3095.43610868945	532.820007324219
3097.31532641028	532.320007324219
3099.19406681939	532.869995117188
3101.07233012858	532.239990234375
3102.95011654955	533.330017089844
3104.82742629385	533.940002441406
3106.70425957301	532.429992675781
3108.58061659837	533.119995117188
3110.45649758123	533.75
3112.33190273275	532.940002441406
3114.206832264	533.309997558594
3116.08128638593	533.070007324219
3117.95526530941	532.539978027344
3119.82876924519	533.880004882813
3121.7017984039	532.919982910156
3123.5743529961	533.359985351563
3125.44643323221	532.929992675781
3127.31803932256	533.650024414063
3129.18917147738	533.309997558594
3131.05982990678	533.330017089844
3132.93001482076	533.099975585938
3134.79972642924	532.469970703125
3136.66896494201	533.130004882813
3138.53773056876	532.880004882813
3140.40602351906	534.239990234375
3142.27384400239	534.200012207031
3144.14119222812	532.659973144531
3146.00806840551	533.239990234375
3147.87447274371	533.25
3149.74040545175	534.400024414063
3151.60586673859	533.010009765625
3153.47085681302	532.799987792969
3155.33537588378	533.679992675781
3157.19942415948	534.280029296875
3159.0630018486	533.700012207031
3160.92610915954	532.710021972656
3162.78874630058	534.099975585938
3164.65091347989	534.409973144531
3166.51261090551	533.409973144531
3168.37383878541	534.710021972656
3170.23459732743	534.429992675781
3172.09488673928	534.510009765625
3173.95470722859	533.239990234375
3175.81405900285	534.700012207031
3177.67294226948	533.369995117188
3179.53135723574	534.260009765625
3181.38930410881	533.609985351563
3183.24678309574	534.820007324219
3185.10379440349	534.609985351563
3186.96033823889	534.150024414063
3188.81641480866	533.830017089844
3190.6720243194	533.289978027344
3192.52716697762	532.900024414063
3194.3818429897	534.190002441406
3196.23605256191	533.419982910156
3198.0897959004	533.359985351563
3199.94307321121	534.440002441406
3201.79588470028	534.280029296875
3203.64823057341	533.630004882813
3205.50011103631	533.109985351563
3207.35152629455	534.359985351563
3209.20247655361	533.25
3211.05296201884	533.97998046875
3212.90298289549	533.25
3214.75253938867	534.739990234375
3216.60163170338	536.530029296875
3218.45026004453	534.440002441406
3220.29842461688	533.539978027344
3222.14612562509	534.030029296875
3223.99336327371	533.179992675781
3225.84013776716	534.380004882813
3227.68644930975	533.97998046875
3229.53229810565	534.280029296875
3231.37768435896	533.789978027344
3233.22260827362	533.450012207031
3235.06707005346	533.5
3236.91106990221	534.239990234375
3238.75460802346	534.590026855469
3240.59768462069	534.630004882813
3242.44029989727	533.97998046875
3244.28245405643	534.130004882813
3246.1241473013	533.849975585938
3247.96537983488	533.960021972656
3249.80615186006	532.989990234375
3251.64646357959	533.460021972656
3253.4863151961	533.97998046875
3255.32570691215	533.799987792969
3257.1646389301	534.080017089844
3259.00311145225	534.280029296875
3260.84112468076	535.340026855469
3262.67867881765	534.809997558594
3264.51577406484	534.010009765625
3266.35241062413	534.469970703125
3268.18858869718	534.099975585938
3270.02430848554	535.169982910156
3271.85957019063	533.559997558594
3273.69437401375	534.5
3275.52872015607	533.940002441406
3277.36260881867	534.190002441406
3279.19604020246	533.130004882813
3281.02901450824	533.820007324219
3282.8615319367	533.760009765625
3284.6935926884	534.169982910156
3286.52519696377	533.609985351563
3288.35634496311	534.320007324219
3290.1870368866	534.390014648438
3292.0172729343	534.349975585938
3293.84705330615	534.789978027344
3295.67637820193	533.640014648438
3297.50524782133	534.299987792969
3299.33366236391	534.659973144531
3301.16162202907	533.669982910156
3302.98912701613	535.559997558594
3304.81617752425	533.969970703125
3306.64277375247	535.570007324219
3308.4689158997	535.799987792969
3310.29460416474	535.070007324219
3312.11983874623	536.030029296875
3313.9446198427	534.929992675781
3315.76894765256	534.390014648438
3317.59282237407	534.890014648438
3319.41624420538	534.239990234375
3321.2392133445	535.150024414063
3323.06172998931	534.320007324219
3324.88379433755	534.580017089844
3326.70540658685	535.419982910156
3328.5265669347	535.489990234375
3330.34727557845	533.27001953125
3332.16753271535	533.940002441406
3333.98733854247	534.849975585938
3335.80669325678	534.580017089844
3337.62559705512	533.320007324219
3339.4440501342	533.369995117188
3341.26205269055	534.849975585938
3343.07960492064	535.080017089844
3344.89670702075	534.380004882813
3346.71335918706	534.349975585938
3348.52956161559	534.380004882813
3350.34531450225	533.330017089844
3352.16061804281	534.099975585938
3353.9754724329	535.010009765625
3355.789877868	534.659973144531
3357.60383454349	535.489990234375
3359.41734265458	534.630004882813
3361.23040239638	536.159973144531
3363.04301396382	535.869995117188
3364.85517755174	534.559997558594
3366.66689335481	535.390014648438
3368.47816156759	534.799987792969
3370.28898238446	534.809997558594
3372.09935599972	535.330017089844
3373.90928260748	534.599975585938
3375.71876240176	535.030029296875
3377.5277955764	535.119995117188
3379.33638232513	535.090026855469
3381.14452284152	535.409973144531
3382.95221731902	534.200012207031
3384.75946595092	534.349975585938
3386.5662689304	535.789978027344
3388.37262645047	534.330017089844
3390.17853870402	534.010009765625
3391.98400588379	534.659973144531
3393.78902818239	533.77001953125
3395.59360579228	535.650024414063
3397.39773890576	534.450012207031
3399.20142771503	535.760009765625
3401.00467241213	534.940002441406
3402.80747318894	535.159973144531
3404.60983023722	534.080017089844
3406.41174374857	535.299987792969
3408.21321391447	535.359985351563
3410.01424092624	534.010009765625
3411.81482497507	535.429992675781
3413.61496625197	533.239990234375
3415.41466494786	535.049987792969
3417.21392125347	536.119995117188
3419.01273535942	533.309997558594
3420.81110745615	534.5
3422.60903773398	535.460021972656
3424.40652638309	534.489990234375
3426.20357359349	535.75
3428.00017955505	536.109985351563
3429.79634445752	535.599975585938
3431.59206849046	536.02001953125
3433.38735184333	534.75
3435.18219470539	533.710021972656
3436.9765972658	536.599975585938
3438.77055971355	535.650024414063
3440.56408223748	535.650024414063
3442.35716502629	535.359985351563
3444.14980826854	534.679992675781
3445.9420121526	534.359985351563
3447.73377686673	535.97998046875
3449.52510259905	535.489990234375
3451.31598953748	535.619995117188
3453.10643786984	535.219970703125
3454.89644778376	536.119995117188
3456.68601946676	535.330017089844
3458.47515310616	535.909973144531
3460.26384888918	535.630004882813
3462.05210700284	534.450012207031
3463.83992763405	534.890014648438
3465.62731096955	534.049987792969
3467.4142571959	535.690002441406
3469.20076649956	534.760009765625
3470.98683906679	534.989990234375
3472.77247508372	535
3474.55767473633	534.539978027344
3476.34243821044	536.119995117188
3478.1267656917	536.469970703125
3479.91065736562	534.929992675781
3481.69411341757	536.200012207031
3483.47713403272	534.260009765625
3485.25971939613	536.010009765625
3487.04186969267	534.340026855469
3488.82358510709	535.460021972656
3490.60486582394	535.659973144531
3492.38571202765	535.359985351563
3494.16612390248	535.929992675781
3495.94610163251	535.880004882813
3497.7256454017	535.969970703125
3499.50475539383	536.109985351563
3501.28343179252	535.280029296875
3503.06167478123	536.039978027344
3504.83948454329	535.559997558594
3506.61686126183	535.47998046875
3508.39380511983	535.320007324219
3510.17031630013	537.340026855469
3511.94639498539	534.890014648438
3513.72204135812	535.570007324219
3515.49725560065	535.760009765625
3517.27203789519	535.330017089844
3519.04638842373	536.570007324219
3520.82030736815	536.460021972656
3522.59379491013	535.640014648438
3524.36685123122	535.599975585938
3526.13947651279	535.039978027344
3527.91167093603	535.299987792969
3529.68343468199	534.940002441406
3531.45476793156	535.5
3533.22567086543	536.440002441406
3534.99614366418	535.780029296875
3536.76618650817	535.630004882813
3538.53579957763	535.47998046875
3540.30498305261	536.280029296875
3542.07373711301	535.330017089844
3543.84206193852	536.02001953125
3545.60995770873	535.760009765625
3547.377424603	535.190002441406
3549.14446280057	534.909973144531
3550.91107248048	536.75
3552.67725382162	534.590026855469
3554.4430070027	534.969970703125
3556.20833220227	535.400024414063
3557.97322959871	535.239990234375
3559.73769937022	536.609985351563
3561.50174169485	535.650024414063
3563.26535675047	536.880004882813
3565.02854471476	534.929992675781
3566.79130576526	535.809997558594
3568.55364007934	536.330017089844
3570.31554783417	535.340026855469
3572.07702920676	535.450012207031
3573.83808437396	537.039978027344
3575.59871351243	535.820007324219
3577.35891679868	536.030029296875
3579.11869440903	535.760009765625
3580.87804651963	535.669982910156
3582.63697330644	534.289978027344
3584.39547494529	535.450012207031
3586.15355161179	536.900024414063
3587.9112034814	536.049987792969
3589.66843072939	536.190002441406
3591.42523353087	535.330017089844
3593.18161206076	536.070007324219
3594.93756649382	534.679992675781
3596.69309700462	536.030029296875
3598.44820376756	535.719970703125
3600.20288695686	535.190002441406
3601.95714674655	534.609985351563
3603.71098331052	536.679992675781
3605.46439682244	535.869995117188
3607.21738745581	535.22998046875
3608.96995538399	536.030029296875
3610.7221007801	536.52001953125
3612.47382381712	536.280029296875
3614.22512466785	535.070007324219
3615.97600350489	535.909973144531
3617.72646050068	535.599975585938
3619.47649582746	536.820007324219
3621.2261096573	536.27001953125
3622.97530216209	535.400024414063
3624.72407351354	536
3626.47242388315	535.669982910156
3628.22035344229	537.080017089844
3629.96786236209	534.590026855469
3631.71495081353	536.210021972656
3633.46161896741	536.090026855469
3635.20786699432	536.559997558594
3636.95369506469	536.359985351563
3638.69910334876	536.710021972656
3640.44409201656	534.849975585938
3642.18866123798	536.809997558594
3643.93281118269	535.239990234375
3645.67654202018	535.380004882813
3647.41985391976	535.830017089844
3649.16274705054	534.219970703125
3650.90522158147	534.47998046875
3652.64727768129	536.719970703125
3654.38891551854	535.97998046875
3656.13013526161	535.869995117188
3657.87093707867	535.590026855469
3659.6113211377	535.969970703125
3661.35128760653	536.150024414063
3663.09083665274	536.219970703125
3664.82996844378	536.719970703125
3666.56868314686	535.919982910156
3668.30698092902	534.929992675781
3670.04486195712	537.140014648438
3671.78232639782	536.25
3673.51937441757	537.320007324219
3675.25600618265	535.299987792969
3676.99222185915	536.419982910156
3678.72802161294	536.669982910156
3680.46340560973	535.549987792969
3682.19837401502	536.080017089844
3683.9329269941	535.469970703125
3685.66706471209	537.840026855469
3687.40078733392	536.549987792969
3689.13409502429	536.659973144531
3690.86698794774	535.02001953125
3692.59946626859	536.27001953125
3694.33153015099	536.059997558594
3696.06317975887	536.5
3697.79441525596	535.950012207031
3699.52523680581	535.440002441406
3701.25564457177	536.359985351563
3702.98563871698	535.739990234375
3704.7152194044	535.599975585938
3706.44438679676	534.77001953125
3708.17314105662	535.340026855469
3709.90148234634	536.590026855469
3711.62941082806	536.719970703125
3713.35692666373	536.450012207031
3715.08403001511	535.700012207031
3716.81072104373	535.419982910156
3718.53699991096	535.450012207031
3720.26286677792	536.659973144531
3721.98832180558	534.760009765625
3723.71336515466	536.859985351563
3725.43799698571	536.580017089844
3727.16221745906	537.909973144531
3728.88602673483	535.27001953125
3730.60942497296	537.179992675781
3732.33241233317	534.989990234375
3734.05498897498	535.340026855469
3735.77715505769	536.609985351563
3737.49891074042	535.010009765625
3739.22025618205	534.900024414063
3740.9411915413	536.799987792969
3742.66171697665	536.580017089844
3744.38183264637	536.429992675781
3746.10153870854	535.799987792969
3747.82083532102	535.809997558594
3749.53972264148	535.919982910156
3751.25820082735	535.940002441406
3752.97627003589	536.090026855469
3754.69393042411	535.130004882813
3756.41118214884	536.27001953125
3758.12802536669	535.330017089844
3759.84446023406	537.969970703125
3761.56048690714	535.679992675781
3763.2761055419	535.859985351563
3764.99131629411	535.369995117188
3766.70611931932	536.880004882813
3768.42051477289	538.119995117188
3770.13450280992	536.200012207031
3771.84808358535	536.109985351563
3773.56125725387	536.469970703125
3775.27402396997	536.070007324219
3776.98638388793	536.929992675781
3778.69833716179	535.890014648438
3780.40988394541	535.929992675781
3782.12102439242	535.090026855469
3783.83175865622	535.340026855469
3785.54208689002	534.840026855469
3787.25200924679	536.510009765625
3788.96152587929	535.780029296875
3790.67063694008	536.570007324219
3792.37934258148	535.650024414063
3794.08764295559	535.780029296875
3795.79553821432	536.609985351563
3797.50302850932	535.219970703125
3799.21011399205	535.739990234375
3800.91679481376	535.880004882813
3802.62307112543	535.75
3804.32894307788	535.549987792969
3806.03441082168	537.859985351563
3807.73947450715	534.890014648438
3809.44413428445	535.299987792969
3811.14839030347	536.280029296875
3812.8522427139	535.450012207031
3814.5556916652	536.340026855469
3816.2587373066	536.030029296875
3817.96137978712	536.349975585938
3819.66361925556	536.380004882813
3821.36545586047	535.619995117188
3823.06688975019	536.530029296875
3824.76792107284	536.859985351563
3826.46854997631	536.630004882813
3828.16877660826	534.890014648438
3829.86860111614	534.659973144531
3831.56802364714	535.510009765625
3833.26704434826	536.140014648438
3834.96566336625	535.640014648438
3836.66388084763	536.599975585938
3838.36169693871	535.919982910156
3840.05911178555	535.130004882813
3841.756125534	536.440002441406
3843.45273832967	535.669982910156
3845.14895031794	536.140014648438
3846.84476164396	535.679992675781
3848.54017245265	536.27001953125
3850.2351828887	535.969970703125
3851.92979309657	535.539978027344
3853.62400322048	535.489990234375
3855.31781340442	536.450012207031
3857.01122379217	535.700012207031
3858.70423452724	536.190002441406
3860.39684575292	535.799987792969
3862.08905761229	535.349975585938
3863.78087024815	536.52001953125
3865.47228380311	536.010009765625
3867.16329841952	535.140014648438
3868.85391423949	536.690002441406
3870.54413140492	535.950012207031
3872.23395005745	536.210021972656
3873.92337033848	536.390014648438
3875.6123923892	535.330017089844
3877.30101635053	537.559997558594
3878.98924236318	535
3880.6770705676	537.659973144531
3882.36450110402	536.049987792969
3884.05153411241	536.010009765625
3885.73816973252	537.489990234375
3887.42440810385	536.960021972656
3889.11024936566	536.169982910156
3890.79569365697	536.590026855469
3892.48074111655	536.299987792969
3894.16539188295	536.039978027344
3895.84964609446	535.960021972656
3897.53350388913	535.960021972656
3899.21696540478	535.919982910156
3900.90003077896	536.419982910156
3902.58270014899	535.119995117188
3904.26497365197	537.169982910156
3905.94685142473	536.400024414063
3907.62833360384	535.890014648438
3909.30942032565	536.219970703125
3910.99011172627	537.059997558594
3912.67040794154	535.849975585938
3914.35030910707	536
3916.02981535822	536.039978027344
3917.70892683009	535.679992675781
3919.38764365755	536.469970703125
3921.06596597521	535.340026855469
3922.74389391745	534.849975585938
3924.42142761836	535.590026855469
3926.09856721184	536.27001953125
3927.77531283147	535.919982910156
3929.45166461066	534.950012207031
3931.12762268248	535.799987792969
3932.80318717982	535.820007324219
3934.4783582353	535.679992675781
3936.15313598127	536.340026855469
3937.82752054984	536.369995117188
3939.50151207287	535.150024414063
3941.17511068195	535.119995117188
3942.84831650845	536.390014648438
3944.52112968345	535.849975585938
3946.19355033779	536.359985351563
3947.86557860206	535.049987792969
3949.5372146066	535.440002441406
3951.20845848148	535.489990234375
3952.8793103565	536.010009765625
3954.54977036124	536.159973144531
3956.21983862501	536.359985351563
3957.88951527684	535.440002441406
3959.55880044554	535.409973144531
3961.22769425962	536.530029296875
3962.89619684736	536.869995117188
3964.56430833679	536.599975585938
3966.23202885564	536.409973144531
3967.89935853142	534.890014648438
3969.56629749136	537.239990234375
3971.23284586243	535.409973144531
3972.89900377136	535.969970703125
3974.56477134456	536.489990234375
3976.23014870826	535.239990234375
3977.89513598836	535.159973144531
3979.55973331054	535.559997558594
3981.22394080019	535.77001953125
3982.88775858244	536.099975585938
3984.55118678218	535.869995117188
3986.214225524	537.090026855469
3987.87687493225	536.580017089844
3989.539135131	536.070007324219
3991.20100624407	536.400024414063
3992.862488395	536.52001953125
3994.52358170707	534.070007324219
3996.18428630328	535.010009765625
3997.8446023064	536.880004882813
3999.50452983887	535.340026855469
4001.16406902292	536.489990234375
4002.82321998049	535.559997558594
4004.48198283323	535.650024414063
4006.14035770255	535.97998046875
4007.79834470958	536.130004882813
4009.45594397517	535.02001953125
4011.11315561992	535.580017089844
4012.76997976414	536.859985351563
4014.42641652787	535.919982910156
4016.08246603089	537.039978027344
4017.7381283927	535.650024414063
4019.3934037325	536.190002441406
4021.04829216928	535.75
4022.70279382169	535.52001953125
4024.35690880815	534.669982910156
4026.01063724678	535.219970703125
4027.66397925544	536.75
4029.3169349517	536.280029296875
4030.96950445288	535.280029296875
4032.62168787598	535.559997558594
4034.27348533777	536.309997558594
4035.92489695471	535.330017089844
4037.57592284299	536.450012207031
4039.22656311853	535.820007324219
4040.87681789698	535.010009765625
4042.52668729366	536.469970703125
4044.17617142368	536.570007324219
4045.82527040183	535.010009765625
4047.47398434262	536.049987792969
4049.1223133603	535.159973144531
4050.7702575688	536.309997558594
4052.41781708182	536.830017089844
4054.06499201272	536.210021972656
4055.71178247464	535.340026855469
4057.35818858039	536.320007324219
4059.00421044251	536.570007324219
4060.64984817325	535.599975585938
4062.29510188459	535.179992675781
4063.93997168823	536.140014648438
4065.58445769556	534.969970703125
4067.2285600177	537.200012207031
4068.87227876548	535.900024414063
4070.51561404944	536.599975585938
4072.15856597984	536.75
4073.80113466666	536.950012207031
4075.44332021957	536.760009765625
4077.08512274797	536.22998046875
4078.72654236096	536.260009765625
4080.36757916736	536.280029296875
4082.00823327569	535.789978027344
4083.6485047942	536.289978027344
4085.28839383082	536.159973144531
4086.9279004932	535.640014648438
4088.56702488872	536.440002441406
4090.20576712445	536.080017089844
4091.84412730717	536.489990234375
4093.48210554335	535.940002441406
4095.11970193919	536.77001953125
4096.7569166006	536.070007324219
4098.39374963318	535.890014648438
4100.03020114223	537.099975585938
4101.66627123279	536.590026855469
4103.30196000955	538.109985351563
4104.93726757695	536.299987792969
4106.57219403912	537.369995117188
4108.2067394999	537.489990234375
4109.84090406281	537.739990234375
4111.47468783109	535.880004882813
4113.10809090768	537.02001953125
4114.74111339523	536.030029296875
4116.37375539606	536.580017089844
4118.00601701224	536.599975585938
4119.63789834548	536.080017089844
4121.26939949725	536.809997558594
4122.90052056869	537.099975585938
4124.53126166062	536.039978027344
4126.16162287359	537.080017089844
4127.79160430784	537.109985351563
4129.42120606331	536.679992675781
4131.05042823961	536.950012207031
4132.67927093608	538.130004882813
4134.30773425175	537.72998046875
4135.93581828533	537.299987792969
4137.56352313524	536.590026855469
4139.19084889959	537.22998046875
4140.81779567618	537.390014648438
4142.44436356252	537.109985351563
4144.07055265578	537.02001953125
4145.69636305286	536.789978027344
4147.32179485034	538.469970703125
4148.94684814448	538.400024414063
4150.57152303124	537.159973144531
4152.19581960629	537.659973144531
4153.81973796495	536.099975585938
4155.44327820226	538.239990234375
4157.06644041296	537.299987792969
4158.68922469144	536.969970703125
4160.31163113181	537.510009765625
4161.93365982786	536.340026855469
4163.55531087308	536.130004882813
4165.17658436062	538.010009765625
4166.79748038333	535.340026855469
4168.41799903377	536.52001953125
4170.03814040415	537.590026855469
4171.65790458639	537.419982910156
4173.27729167209	538.169982910156
4174.89630175252	536.159973144531
4176.51493491865	535.830017089844
4178.13319126113	536.789978027344
4179.75107087031	536.030029296875
4181.3685738362	537.210021972656
4182.98570024849	536.97998046875
4184.60245019655	536.309997558594
4186.21882376948	535.330017089844
4187.83482105601	534.880004882813
4189.45044214456	536.179992675781
4191.06568712324	537.150024414063
4192.68055607984	537.47998046875
4194.29504910182	536.679992675781
4195.90916627633	537.799987792969
4197.52290769019	535.330017089844
4199.1362734299	536.820007324219
4200.74926358165	535.359985351563
4202.36187823129	535.700012207031
4203.97411746435	536.320007324219
4205.58598136604	536.369995117188
4207.19747002124	536.619995117188
4208.80858351453	534.419982910156
4210.41932193014	536.169982910156
4212.02968535196	537.919982910156
4213.63967386359	534.190002441406
4215.24928754829	535.940002441406
4216.85852648899	536.27001953125
